id,weight,price
i-880001,0.78,99.99
i-880002,0.78,99.99
i-880003,0.188,1149.0
i-880004,1.37,2500.0
i-880005,0.495,129.0
i-880006,0.28,449.0
i-880007,0.2,39.99
i-880008,0.21,529.0
i-880009,0.483,1099.0
i-880010,0.172,699.0
i-880011,0.495,129.0
i-880012,0.483,1099.0
i-880013,0.78,99.99
i-880014,0.495,129.0
i-880015,0.98,129.99
i-880016,0.98,129.99
i-880017,0.21,529.0
i-880018,0.483,1099.0
i-880019,0.28,89.99
i-880020,0.38,29.99
i-880021,1.25,2200.0
i-880022,1.48,199.99
i-880023,0.495,129.0
i-880024,0.44,476.0
i-880025,0.2,39.99
i-880026,0.188,1149.0
i-880027,1.48,199.99
i-880028,0.88,89.99
i-880029,0.483,495.0
i-880030,0.483,495.0
i-880031,1.25,2200.0
i-880032,0.483,1099.0
i-880033,0.44,476.0
i-880034,0.78,99.99
i-880035,0.28,89.99
i-880036,0.28,449.0
i-880037,0.21,529.0
i-880038,0.44,476.0
i-880039,0.44,476.0
i-880040,0.172,699.0
i-880041,0.188,1149.0
i-880042,0.166,799.0
i-880043,0.2,39.99
i-880044,1.48,199.99
i-880045,0.483,495.0
i-880046,0.2,39.99
i-880047,0.21,529.0
i-880048,0.188,1149.0
i-880049,0.172,699.0
i-880050,0.483,1099.0
i-880051,0.166,799.0
i-880052,1.48,199.99
i-880053,0.98,129.99
i-880054,0.28,449.0
i-880055,1.25,2200.0
i-880056,0.78,99.99
i-880057,0.483,1099.0
i-880058,0.38,29.99
i-880059,0.38,29.99
i-880060,0.21,529.0
i-880061,0.166,799.0
i-880062,0.172,699.0
i-880063,0.172,699.0
i-880064,0.21,529.0
i-880065,0.28,89.99
i-880066,0.28,449.0
i-880067,1.28,149.99
i-880068,0.483,495.0
i-880069,1.28,149.99
i-880070,0.28,449.0
i-880071,0.78,99.99
i-880072,0.28,89.99
i-880073,0.172,699.0
i-880074,0.483,1099.0
i-880075,0.483,1099.0
i-880076,1.48,199.99
i-880077,0.166,799.0
i-880078,0.38,29.99
i-880079,0.28,89.99
i-880080,1.28,149.99
i-880081,0.28,449.0
i-880082,0.88,89.99
i-880083,0.2,39.99
i-880084,0.38,29.99
i-880085,0.88,89.99
i-880086,0.188,1149.0
i-880087,0.495,129.0
i-880088,0.188,1149.0
i-880089,0.166,799.0
i-880090,0.483,495.0
i-880091,1.48,199.99
i-880092,0.166,799.0
i-880093,0.44,476.0
i-880094,0.2,39.99
i-880095,0.483,1099.0
i-880096,1.48,199.99
i-880097,0.483,495.0
i-880098,0.483,495.0
i-880099,0.483,79.99
i-880100,0.88,89.99
i-880101,1.25,2200.0
i-880102,0.495,129.0
i-880103,0.483,1099.0
i-880104,0.21,529.0
i-880105,0.44,476.0
i-880106,0.188,1149.0
i-880107,0.28,89.99
i-880108,1.28,149.99
i-880109,0.44,476.0
i-880110,0.21,529.0
i-880111,0.38,29.99
i-880112,0.44,476.0
i-880113,0.44,476.0
i-880114,0.483,495.0
i-880115,1.48,199.99
i-880116,0.98,129.99
i-880117,1.28,149.99
i-880118,0.44,476.0
i-880119,0.172,699.0
i-880120,0.188,1149.0
i-880121,1.28,149.99
i-880122,0.28,449.0
i-880123,0.483,79.99
i-880124,0.172,699.0
i-880125,0.78,99.99
i-880126,0.78,99.99
i-880127,1.25,2200.0
i-880128,0.28,89.99
i-880129,0.78,99.99
i-880130,0.98,129.99
i-880131,0.38,29.99
i-880132,0.28,89.99
i-880133,0.21,529.0
i-880134,0.44,476.0
i-880135,0.28,89.99
i-880136,0.28,89.99
i-880137,0.21,529.0
i-880138,0.483,1099.0
i-880139,0.98,129.99
i-880140,0.88,89.99
i-880141,0.28,89.99
i-880142,0.495,129.0
i-880143,0.188,1149.0
i-880144,1.28,149.99
i-880145,1.25,2200.0
i-880146,0.495,129.0
i-880147,1.48,199.99
i-880148,0.188,1149.0
i-880149,0.78,99.99
i-880150,0.172,699.0
i-880151,0.166,799.0
i-880152,1.48,199.99
i-880153,0.21,529.0
i-880154,0.38,29.99
i-880155,1.37,2500.0
i-880156,0.28,449.0
i-880157,0.483,495.0
i-880158,0.2,39.99
i-880159,0.483,1099.0
i-880160,0.188,1149.0
i-880161,0.28,89.99
i-880162,0.98,129.99
i-880163,0.2,39.99
i-880164,0.166,799.0
i-880165,0.88,89.99
i-880166,1.48,199.99
i-880167,0.21,529.0
i-880168,0.28,449.0
i-880169,0.88,89.99
i-880170,0.483,79.99
i-880171,0.188,1149.0
i-880172,0.483,495.0
i-880173,0.483,495.0
i-880174,0.495,129.0
i-880175,0.21,529.0
i-880176,0.483,79.99
i-880177,0.483,1099.0
i-880178,0.166,799.0
i-880179,1.28,149.99
i-880180,0.495,129.0
i-880181,0.28,449.0
i-880182,0.483,495.0
i-880183,0.483,79.99
i-880184,0.172,699.0
i-880185,1.48,199.99
i-880186,1.48,199.99
i-880187,1.37,2500.0
i-880188,0.188,1149.0
i-880189,0.88,89.99
i-880190,0.2,39.99
i-880191,0.98,129.99
i-880192,0.28,449.0
i-880193,0.28,89.99
i-880194,0.188,1149.0
i-880195,0.172,699.0
i-880196,1.37,2500.0
i-880197,0.166,799.0
i-880198,0.483,495.0
i-880199,1.37,2500.0
i-880200,0.166,799.0
i-880201,0.188,1149.0
i-880202,0.98,129.99
i-880203,0.2,39.99
i-880204,1.25,2200.0
i-880205,0.172,699.0
i-880206,0.28,89.99
i-880207,0.2,39.99
i-880208,0.188,1149.0
i-880209,0.28,89.99
i-880210,0.44,476.0
i-880211,0.98,129.99
i-880212,1.25,2200.0
i-880213,0.483,79.99
i-880214,0.2,39.99
i-880215,1.28,149.99
i-880216,1.48,199.99
i-880217,1.25,2200.0
i-880218,0.188,1149.0
i-880219,0.483,495.0
i-880220,0.44,476.0
i-880221,0.28,89.99
i-880222,0.483,79.99
i-880223,1.25,2200.0
i-880224,0.483,79.99
i-880225,1.28,149.99
i-880226,0.88,89.99
i-880227,0.188,1149.0
i-880228,0.28,89.99
i-880229,1.28,149.99
i-880230,0.78,99.99
i-880231,1.48,199.99
i-880232,0.483,1099.0
i-880233,0.166,799.0
i-880234,0.98,129.99
i-880235,0.166,799.0
i-880236,0.483,79.99
i-880237,0.495,129.0
i-880238,0.2,39.99
i-880239,0.188,1149.0
i-880240,0.38,29.99
i-880241,0.483,1099.0
i-880242,0.98,129.99
i-880243,0.172,699.0
i-880244,0.21,529.0
i-880245,0.21,529.0
i-880246,0.483,1099.0
i-880247,0.21,529.0
i-880248,1.48,199.99
i-880249,1.48,199.99
i-880250,0.483,1099.0
i-880251,0.44,476.0
i-880252,1.28,149.99
i-880253,0.483,79.99
i-880254,0.88,89.99
i-880255,0.483,495.0
i-880256,1.48,199.99
i-880257,0.38,29.99
i-880258,0.2,39.99
i-880259,0.483,79.99
i-880260,1.48,199.99
i-880261,1.25,2200.0
i-880262,1.37,2500.0
i-880263,0.188,1149.0
i-880264,0.483,1099.0
i-880265,0.21,529.0
i-880266,0.2,39.99
i-880267,0.44,476.0
i-880268,0.78,99.99
i-880269,0.78,99.99
i-880270,0.2,39.99
i-880271,1.37,2500.0
i-880272,0.38,29.99
i-880273,0.2,39.99
i-880274,0.44,476.0
i-880275,0.166,799.0
i-880276,0.172,699.0
i-880277,0.483,79.99
i-880278,1.28,149.99
i-880279,0.483,495.0
i-880280,1.25,2200.0
i-880281,0.44,476.0
i-880282,0.483,495.0
i-880283,0.98,129.99
i-880284,0.172,699.0
i-880285,0.28,449.0
i-880286,1.48,199.99
i-880287,0.28,89.99
i-880288,0.88,89.99
i-880289,0.188,1149.0
i-880290,0.21,529.0
i-880291,1.48,199.99
i-880292,0.495,129.0
i-880293,0.21,529.0
i-880294,0.188,1149.0
i-880295,1.37,2500.0
i-880296,0.495,129.0
i-880297,1.28,149.99
i-880298,1.48,199.99
i-880299,0.21,529.0
i-880300,0.188,1149.0
i-880301,0.98,129.99
i-880302,0.483,1099.0
i-880303,0.483,495.0
i-880304,0.483,1099.0
i-880305,0.166,799.0
i-880306,0.495,129.0
i-880307,0.38,29.99
i-880308,0.78,99.99
i-880309,0.28,89.99
i-880310,0.21,529.0
i-880311,0.483,1099.0
i-880312,1.37,2500.0
i-880313,0.166,799.0
i-880314,0.28,89.99
i-880315,1.25,2200.0
i-880316,0.188,1149.0
i-880317,0.78,99.99
i-880318,0.495,129.0
i-880319,0.2,39.99
i-880320,0.483,79.99
i-880321,0.172,699.0
i-880322,0.483,1099.0
i-880323,0.98,129.99
i-880324,0.28,449.0
i-880325,0.483,79.99
i-880326,0.483,1099.0
i-880327,1.48,199.99
i-880328,0.188,1149.0
i-880329,1.48,199.99
i-880330,0.172,699.0
i-880331,0.98,129.99
i-880332,0.28,449.0
i-880333,0.28,449.0
i-880334,0.483,1099.0
i-880335,0.28,449.0
i-880336,0.2,39.99
i-880337,0.2,39.99
i-880338,1.28,149.99
i-880339,1.28,149.99
i-880340,0.166,799.0
i-880341,0.483,79.99
i-880342,1.28,149.99
i-880343,0.2,39.99
i-880344,1.28,149.99
i-880345,0.38,29.99
i-880346,0.483,1099.0
i-880347,0.166,799.0
i-880348,0.21,529.0
i-880349,0.88,89.99
i-880350,0.21,529.0
i-880351,1.25,2200.0
i-880352,0.483,495.0
i-880353,0.483,79.99
i-880354,0.28,89.99
i-880355,1.37,2500.0
i-880356,1.48,199.99
i-880357,0.98,129.99
i-880358,0.483,1099.0
i-880359,0.172,699.0
i-880360,0.2,39.99
i-880361,0.44,476.0
i-880362,0.495,129.0
i-880363,1.37,2500.0
i-880364,0.98,129.99
i-880365,1.37,2500.0
i-880366,0.172,699.0
i-880367,0.483,1099.0
i-880368,0.188,1149.0
i-880369,0.172,699.0
i-880370,0.483,1099.0
i-880371,0.28,89.99
i-880372,0.44,476.0
i-880373,0.483,495.0
i-880374,0.172,699.0
i-880375,0.44,476.0
i-880376,0.78,99.99
i-880377,0.2,39.99
i-880378,0.2,39.99
i-880379,0.38,29.99
i-880380,0.98,129.99
i-880381,0.98,129.99
i-880382,0.495,129.0
i-880383,0.21,529.0
i-880384,0.172,699.0
i-880385,1.48,199.99
i-880386,1.25,2200.0
i-880387,0.38,29.99
i-880388,0.28,89.99
i-880389,0.28,449.0
i-880390,0.98,129.99
i-880391,0.98,129.99
i-880392,0.78,99.99
i-880393,0.188,1149.0
i-880394,0.78,99.99
i-880395,0.495,129.0
i-880396,0.38,29.99
i-880397,0.21,529.0
i-880398,0.38,29.99
i-880399,0.44,476.0
i-880400,0.483,495.0
i-880401,0.2,39.99
i-880402,0.495,129.0
i-880403,0.172,699.0
i-880404,0.98,129.99
i-880405,0.21,529.0
i-880406,0.78,99.99
i-880407,0.188,1149.0
i-880408,0.38,29.99
i-880409,1.37,2500.0
i-880410,0.495,129.0
i-880411,0.495,129.0
i-880412,0.2,39.99
i-880413,0.495,129.0
i-880414,0.38,29.99
i-880415,0.2,39.99
i-880416,0.38,29.99
i-880417,0.172,699.0
i-880418,0.172,699.0
i-880419,1.37,2500.0
i-880420,0.78,99.99
i-880421,0.21,529.0
i-880422,0.166,799.0
i-880423,0.44,476.0
i-880424,0.483,79.99
i-880425,0.88,89.99
i-880426,0.483,495.0
i-880427,0.483,495.0
i-880428,0.78,99.99
i-880429,0.483,79.99
i-880430,0.88,89.99
i-880431,1.25,2200.0
i-880432,0.483,79.99
i-880433,0.2,39.99
i-880434,0.483,495.0
i-880435,0.495,129.0
i-880436,0.166,799.0
i-880437,0.98,129.99
i-880438,1.25,2200.0
i-880439,0.2,39.99
i-880440,0.166,799.0
i-880441,0.188,1149.0
i-880442,1.25,2200.0
i-880443,0.483,1099.0
i-880444,1.28,149.99
i-880445,0.78,99.99
i-880446,0.38,29.99
i-880447,0.44,476.0
i-880448,0.483,79.99
i-880449,1.48,199.99
i-880450,1.37,2500.0
i-880451,0.188,1149.0
i-880452,0.28,89.99
i-880453,1.48,199.99
i-880454,0.2,39.99
i-880455,0.483,1099.0
i-880456,0.188,1149.0
i-880457,1.48,199.99
i-880458,0.483,79.99
i-880459,0.2,39.99
i-880460,0.483,495.0
i-880461,1.25,2200.0
i-880462,0.44,476.0
i-880463,0.483,495.0
i-880464,1.28,149.99
i-880465,0.44,476.0
i-880466,0.172,699.0
i-880467,1.28,149.99
i-880468,0.28,89.99
i-880469,1.25,2200.0
i-880470,0.38,29.99
i-880471,0.483,495.0
i-880472,0.495,129.0
i-880473,1.25,2200.0
i-880474,1.25,2200.0
i-880475,0.188,1149.0
i-880476,1.48,199.99
i-880477,0.38,29.99
i-880478,0.166,799.0
i-880479,1.37,2500.0
i-880480,0.44,476.0
i-880481,0.28,449.0
i-880482,0.483,495.0
i-880483,0.78,99.99
i-880484,1.28,149.99
i-880485,0.2,39.99
i-880486,1.37,2500.0
i-880487,1.37,2500.0
i-880488,0.483,79.99
i-880489,0.88,89.99
i-880490,0.28,449.0
i-880491,0.172,699.0
i-880492,0.28,449.0
i-880493,0.21,529.0
i-880494,1.25,2200.0
i-880495,0.98,129.99
i-880496,0.98,129.99
i-880497,1.25,2200.0
i-880498,1.37,2500.0
i-880499,1.28,149.99
i-880500,0.78,99.99
i-880501,0.78,99.99
i-880502,0.44,476.0
i-880503,0.2,39.99
i-880504,0.2,39.99
i-880505,0.172,699.0
i-880506,0.78,99.99
i-880507,0.88,89.99
i-880508,0.98,129.99
i-880509,0.172,699.0
i-880510,1.25,2200.0
i-880511,0.2,39.99
i-880512,0.44,476.0
i-880513,1.37,2500.0
i-880514,0.188,1149.0
i-880515,0.98,129.99
i-880516,1.37,2500.0
i-880517,0.21,529.0
i-880518,0.98,129.99
i-880519,0.483,495.0
i-880520,0.98,129.99
i-880521,0.28,89.99
i-880522,0.188,1149.0
i-880523,0.495,129.0
i-880524,0.495,129.0
i-880525,0.28,449.0
i-880526,0.38,29.99
i-880527,0.483,495.0
i-880528,1.48,199.99
i-880529,0.78,99.99
i-880530,0.28,449.0
i-880531,0.188,1149.0
i-880532,0.188,1149.0
i-880533,0.166,799.0
i-880534,0.28,89.99
i-880535,1.37,2500.0
i-880536,0.2,39.99
i-880537,0.28,89.99
i-880538,0.88,89.99
i-880539,0.78,99.99
i-880540,1.48,199.99
i-880541,0.166,799.0
i-880542,0.483,1099.0
i-880543,1.25,2200.0
i-880544,0.98,129.99
i-880545,1.25,2200.0
i-880546,0.98,129.99
i-880547,0.21,529.0
i-880548,0.188,1149.0
i-880549,0.2,39.99
i-880550,0.483,1099.0
i-880551,0.38,29.99
i-880552,1.28,149.99
i-880553,0.483,1099.0
i-880554,1.48,199.99
i-880555,1.28,149.99
i-880556,0.483,495.0
i-880557,1.37,2500.0
i-880558,1.37,2500.0
i-880559,0.483,79.99
i-880560,0.2,39.99
i-880561,0.98,129.99
i-880562,0.483,1099.0
i-880563,1.28,149.99
i-880564,0.483,79.99
i-880565,1.25,2200.0
i-880566,0.21,529.0
i-880567,1.48,199.99
i-880568,1.37,2500.0
i-880569,0.483,1099.0
i-880570,0.483,1099.0
i-880571,0.28,449.0
i-880572,0.21,529.0
i-880573,0.483,79.99
i-880574,0.188,1149.0
i-880575,0.166,799.0
i-880576,0.44,476.0
i-880577,0.38,29.99
i-880578,0.166,799.0
i-880579,0.2,39.99
i-880580,0.28,449.0
i-880581,1.28,149.99
i-880582,0.172,699.0
i-880583,0.172,699.0
i-880584,1.25,2200.0
i-880585,0.28,89.99
i-880586,0.483,79.99
i-880587,1.37,2500.0
i-880588,0.38,29.99
i-880589,0.28,89.99
i-880590,0.28,89.99
i-880591,0.38,29.99
i-880592,0.21,529.0
i-880593,0.28,89.99
i-880594,0.166,799.0
i-880595,0.483,495.0
i-880596,0.98,129.99
i-880597,0.188,1149.0
i-880598,0.44,476.0
i-880599,0.28,449.0
i-880600,0.166,799.0
i-880601,0.483,1099.0
i-880602,0.483,495.0
i-880603,0.495,129.0
i-880604,0.78,99.99
i-880605,0.98,129.99
i-880606,0.188,1149.0
i-880607,0.44,476.0
i-880608,0.495,129.0
i-880609,0.28,449.0
i-880610,1.28,149.99
i-880611,0.88,89.99
i-880612,0.78,99.99
i-880613,0.483,1099.0
i-880614,0.495,129.0
i-880615,0.2,39.99
i-880616,0.172,699.0
i-880617,0.98,129.99
i-880618,0.28,89.99
i-880619,0.38,29.99
i-880620,0.28,89.99
i-880621,0.88,89.99
i-880622,0.483,79.99
i-880623,1.28,149.99
i-880624,0.44,476.0
i-880625,0.483,1099.0
i-880626,0.98,129.99
i-880627,0.483,1099.0
i-880628,0.28,449.0
i-880629,0.38,29.99
i-880630,0.78,99.99
i-880631,0.21,529.0
i-880632,0.495,129.0
i-880633,0.166,799.0
i-880634,0.98,129.99
i-880635,1.48,199.99
i-880636,1.37,2500.0
i-880637,0.2,39.99
i-880638,0.88,89.99
i-880639,1.28,149.99
i-880640,0.28,449.0
i-880641,0.188,1149.0
i-880642,0.28,89.99
i-880643,0.21,529.0
i-880644,0.483,495.0
i-880645,0.483,1099.0
i-880646,0.483,1099.0
i-880647,0.28,449.0
i-880648,0.495,129.0
i-880649,0.483,79.99
i-880650,0.483,495.0
i-880651,0.495,129.0
i-880652,0.483,1099.0
i-880653,0.44,476.0
i-880654,0.28,89.99
i-880655,0.44,476.0
i-880656,1.25,2200.0
i-880657,0.2,39.99
i-880658,0.495,129.0
i-880659,0.2,39.99
i-880660,0.88,89.99
i-880661,0.88,89.99
i-880662,0.28,449.0
i-880663,0.88,89.99
i-880664,1.25,2200.0
i-880665,0.21,529.0
i-880666,0.44,476.0
i-880667,0.38,29.99
i-880668,0.166,799.0
i-880669,0.188,1149.0
i-880670,0.495,129.0
i-880671,1.48,199.99
i-880672,0.98,129.99
i-880673,0.44,476.0
i-880674,0.28,89.99
i-880675,0.78,99.99
i-880676,0.44,476.0
i-880677,1.25,2200.0
i-880678,0.21,529.0
i-880679,1.48,199.99
i-880680,0.2,39.99
i-880681,0.172,699.0
i-880682,0.483,1099.0
i-880683,0.172,699.0
i-880684,0.483,495.0
i-880685,0.172,699.0
i-880686,0.78,99.99
i-880687,1.25,2200.0
i-880688,1.28,149.99
i-880689,0.38,29.99
i-880690,0.21,529.0
i-880691,0.78,99.99
i-880692,0.2,39.99
i-880693,0.28,89.99
i-880694,0.78,99.99
i-880695,0.88,89.99
i-880696,0.483,1099.0
i-880697,0.2,39.99
i-880698,0.21,529.0
i-880699,0.28,89.99
i-880700,0.28,449.0
i-880701,0.172,699.0
i-880702,0.88,89.99
i-880703,0.21,529.0
i-880704,0.483,495.0
i-880705,0.483,495.0
i-880706,0.495,129.0
i-880707,0.172,699.0
i-880708,0.483,79.99
i-880709,0.483,495.0
i-880710,0.98,129.99
i-880711,0.188,1149.0
i-880712,0.28,449.0
i-880713,0.28,89.99
i-880714,0.483,495.0
i-880715,1.28,149.99
i-880716,1.28,149.99
i-880717,0.28,89.99
i-880718,0.21,529.0
i-880719,0.483,495.0
i-880720,0.483,1099.0
i-880721,1.37,2500.0
i-880722,0.28,449.0
i-880723,0.172,699.0
i-880724,1.28,149.99
i-880725,0.188,1149.0
i-880726,0.483,495.0
i-880727,0.28,89.99
i-880728,0.172,699.0
i-880729,0.2,39.99
i-880730,0.88,89.99
i-880731,0.78,99.99
i-880732,1.37,2500.0
i-880733,0.188,1149.0
i-880734,0.2,39.99
i-880735,0.88,89.99
i-880736,0.172,699.0
i-880737,0.21,529.0
i-880738,0.21,529.0
i-880739,0.483,1099.0
i-880740,0.483,495.0
i-880741,0.78,99.99
i-880742,0.78,99.99
i-880743,0.483,1099.0
i-880744,0.495,129.0
i-880745,0.78,99.99
i-880746,1.25,2200.0
i-880747,1.25,2200.0
i-880748,0.21,529.0
i-880749,1.25,2200.0
i-880750,0.483,495.0
i-880751,0.495,129.0
i-880752,0.21,529.0
i-880753,0.166,799.0
i-880754,0.28,449.0
i-880755,0.21,529.0
i-880756,1.25,2200.0
i-880757,0.38,29.99
i-880758,0.483,1099.0
i-880759,0.98,129.99
i-880760,1.48,199.99
i-880761,0.88,89.99
i-880762,0.483,1099.0
i-880763,1.37,2500.0
i-880764,1.28,149.99
i-880765,0.28,89.99
i-880766,0.78,99.99
i-880767,0.483,79.99
i-880768,0.495,129.0
i-880769,0.495,129.0
i-880770,1.37,2500.0
i-880771,0.495,129.0
i-880772,0.21,529.0
i-880773,0.172,699.0
i-880774,0.98,129.99
i-880775,1.48,199.99
i-880776,1.25,2200.0
i-880777,0.88,89.99
i-880778,0.188,1149.0
i-880779,1.28,149.99
i-880780,1.48,199.99
i-880781,0.98,129.99
i-880782,0.98,129.99
i-880783,0.21,529.0
i-880784,1.28,149.99
i-880785,0.188,1149.0
i-880786,0.28,449.0
i-880787,0.98,129.99
i-880788,0.28,89.99
i-880789,0.2,39.99
i-880790,0.98,129.99
i-880791,0.44,476.0
i-880792,0.88,89.99
i-880793,0.78,99.99
i-880794,1.37,2500.0
i-880795,0.483,79.99
i-880796,0.38,29.99
i-880797,0.28,89.99
i-880798,0.78,99.99
i-880799,0.2,39.99
i-880800,0.44,476.0
i-880801,0.188,1149.0
i-880802,0.21,529.0
i-880803,0.21,529.0
i-880804,0.495,129.0
i-880805,0.28,89.99
i-880806,0.21,529.0
i-880807,0.188,1149.0
i-880808,0.28,449.0
i-880809,0.483,79.99
i-880810,0.483,79.99
i-880811,1.25,2200.0
i-880812,0.38,29.99
i-880813,0.172,699.0
i-880814,1.25,2200.0
i-880815,0.38,29.99
i-880816,0.2,39.99
i-880817,0.44,476.0
i-880818,0.483,495.0
i-880819,0.98,129.99
i-880820,0.98,129.99
i-880821,0.483,1099.0
i-880822,0.38,29.99
i-880823,0.38,29.99
i-880824,1.28,149.99
i-880825,1.48,199.99
i-880826,0.44,476.0
i-880827,0.483,495.0
i-880828,0.21,529.0
i-880829,1.37,2500.0
i-880830,1.28,149.99
i-880831,1.25,2200.0
i-880832,0.166,799.0
i-880833,0.78,99.99
i-880834,0.172,699.0
i-880835,0.78,99.99
i-880836,0.495,129.0
i-880837,0.44,476.0
i-880838,1.28,149.99
i-880839,0.78,99.99
i-880840,0.188,1149.0
i-880841,0.483,79.99
i-880842,0.495,129.0
i-880843,1.48,199.99
i-880844,0.166,799.0
i-880845,1.37,2500.0
i-880846,0.483,1099.0
i-880847,0.483,1099.0
i-880848,0.2,39.99
i-880849,0.28,89.99
i-880850,0.38,29.99
i-880851,1.28,149.99
i-880852,0.28,449.0
i-880853,0.38,29.99
i-880854,0.88,89.99
i-880855,0.166,799.0
i-880856,0.28,89.99
i-880857,1.37,2500.0
i-880858,0.188,1149.0
i-880859,0.483,79.99
i-880860,1.25,2200.0
i-880861,0.88,89.99
i-880862,0.88,89.99
i-880863,0.28,89.99
i-880864,0.166,799.0
i-880865,0.172,699.0
i-880866,0.483,1099.0
i-880867,0.21,529.0
i-880868,0.28,89.99
i-880869,1.37,2500.0
i-880870,1.37,2500.0
i-880871,0.172,699.0
i-880872,0.483,495.0
i-880873,0.28,449.0
i-880874,0.495,129.0
i-880875,0.28,89.99
i-880876,0.78,99.99
i-880877,0.21,529.0
i-880878,1.25,2200.0
i-880879,1.37,2500.0
i-880880,1.37,2500.0
i-880881,1.28,149.99
i-880882,0.495,129.0
i-880883,0.21,529.0
i-880884,1.37,2500.0
i-880885,0.172,699.0
i-880886,0.28,89.99
i-880887,0.483,495.0
i-880888,0.38,29.99
i-880889,0.483,79.99
i-880890,1.48,199.99
i-880891,0.2,39.99
i-880892,0.188,1149.0
i-880893,0.483,79.99
i-880894,0.21,529.0
i-880895,0.483,495.0
i-880896,0.166,799.0
i-880897,1.37,2500.0
i-880898,0.21,529.0
i-880899,1.25,2200.0
i-880900,0.483,1099.0
i-880901,0.44,476.0
i-880902,0.172,699.0
i-880903,0.21,529.0
i-880904,0.44,476.0
i-880905,0.495,129.0
i-880906,0.98,129.99
i-880907,0.483,1099.0
i-880908,0.166,799.0
i-880909,0.172,699.0
i-880910,0.166,799.0
i-880911,1.48,199.99
i-880912,0.166,799.0
i-880913,0.172,699.0
i-880914,1.48,199.99
i-880915,0.2,39.99
i-880916,0.483,1099.0
i-880917,0.28,89.99
i-880918,1.37,2500.0
i-880919,0.88,89.99
i-880920,0.28,89.99
i-880921,1.25,2200.0
i-880922,0.483,1099.0
i-880923,1.25,2200.0
i-880924,0.21,529.0
i-880925,0.98,129.99
i-880926,0.172,699.0
i-880927,0.38,29.99
i-880928,0.21,529.0
i-880929,0.21,529.0
i-880930,0.21,529.0
i-880931,0.2,39.99
i-880932,0.88,89.99
i-880933,0.166,799.0
i-880934,1.25,2200.0
i-880935,0.483,1099.0
i-880936,0.78,99.99
i-880937,0.2,39.99
i-880938,0.38,29.99
i-880939,0.44,476.0
i-880940,0.172,699.0
i-880941,0.172,699.0
i-880942,0.2,39.99
i-880943,0.44,476.0
i-880944,0.2,39.99
i-880945,0.28,449.0
i-880946,0.172,699.0
i-880947,0.172,699.0
i-880948,1.37,2500.0
i-880949,0.78,99.99
i-880950,1.48,199.99
i-880951,0.483,495.0
i-880952,0.483,79.99
i-880953,0.483,1099.0
i-880954,1.28,149.99
i-880955,0.172,699.0
i-880956,1.48,199.99
i-880957,0.483,495.0
i-880958,0.21,529.0
i-880959,0.188,1149.0
i-880960,0.495,129.0
i-880961,1.48,199.99
i-880962,0.88,89.99
i-880963,1.48,199.99
i-880964,0.44,476.0
i-880965,0.2,39.99
i-880966,0.98,129.99
i-880967,0.38,29.99
i-880968,0.483,79.99
i-880969,1.28,149.99
i-880970,1.48,199.99
i-880971,0.172,699.0
i-880972,0.495,129.0
i-880973,0.166,799.0
i-880974,1.48,199.99
i-880975,0.44,476.0
i-880976,1.48,199.99
i-880977,0.88,89.99
i-880978,0.28,89.99
i-880979,1.37,2500.0
i-880980,0.495,129.0
i-880981,0.28,89.99
i-880982,0.28,89.99
i-880983,1.28,149.99
i-880984,0.2,39.99
i-880985,1.28,149.99
i-880986,0.2,39.99
i-880987,0.188,1149.0
i-880988,1.48,199.99
i-880989,0.28,449.0
i-880990,0.172,699.0
i-880991,0.21,529.0
i-880992,0.188,1149.0
i-880993,0.78,99.99
i-880994,0.28,89.99
i-880995,0.188,1149.0
i-880996,0.2,39.99
i-880997,0.98,129.99
i-880998,1.28,149.99
i-880999,0.88,89.99
i-881000,0.2,39.99
i-881001,0.188,1149.0
i-881002,1.25,2200.0
i-881003,1.48,199.99
i-881004,0.166,799.0
i-881005,0.21,529.0
i-881006,0.2,39.99
i-881007,0.98,129.99
i-881008,0.44,476.0
i-881009,0.495,129.0
i-881010,0.98,129.99
i-881011,0.483,495.0
i-881012,0.98,129.99
i-881013,0.2,39.99
i-881014,0.28,449.0
i-881015,0.166,799.0
i-881016,0.495,129.0
i-881017,0.483,1099.0
i-881018,0.21,529.0
i-881019,1.37,2500.0
i-881020,0.98,129.99
i-881021,0.483,1099.0
i-881022,0.98,129.99
i-881023,1.48,199.99
i-881024,0.28,449.0
i-881025,0.483,1099.0
i-881026,0.483,1099.0
i-881027,0.188,1149.0
i-881028,0.21,529.0
i-881029,0.28,89.99
i-881030,1.37,2500.0
i-881031,1.25,2200.0
i-881032,0.172,699.0
i-881033,0.495,129.0
i-881034,0.172,699.0
i-881035,0.28,449.0
i-881036,0.28,89.99
i-881037,0.188,1149.0
i-881038,0.98,129.99
i-881039,0.98,129.99
i-881040,0.172,699.0
i-881041,0.2,39.99
i-881042,0.495,129.0
i-881043,0.483,1099.0
i-881044,0.44,476.0
i-881045,1.28,149.99
i-881046,0.21,529.0
i-881047,0.2,39.99
i-881048,0.78,99.99
i-881049,0.483,495.0
i-881050,0.483,1099.0
i-881051,0.44,476.0
i-881052,0.495,129.0
i-881053,0.44,476.0
i-881054,0.483,1099.0
i-881055,0.98,129.99
i-881056,0.98,129.99
i-881057,0.483,495.0
i-881058,0.172,699.0
i-881059,1.37,2500.0
i-881060,0.495,129.0
i-881061,0.2,39.99
i-881062,0.21,529.0
i-881063,1.28,149.99
i-881064,0.483,495.0
i-881065,0.166,799.0
i-881066,0.98,129.99
i-881067,1.28,149.99
i-881068,1.28,149.99
i-881069,0.21,529.0
i-881070,0.44,476.0
i-881071,1.28,149.99
i-881072,0.166,799.0
i-881073,0.88,89.99
i-881074,1.48,199.99
i-881075,0.38,31.7
i-881076,0.2,42.27
i-881077,0.28,95.13
i-881078,1.37,2642.75
i-881079,0.44,503.18
i-881080,0.78,105.7
i-881081,0.28,474.64
i-881082,0.21,559.21
i-881083,0.98,137.41
i-881084,0.98,137.41
i-881085,0.495,136.37
i-881086,0.2,42.27
i-881087,0.28,474.64
i-881088,0.28,95.13
i-881089,0.172,738.91
i-881090,0.38,31.7
i-881091,0.495,136.37
i-881092,0.483,1161.75
i-881093,0.44,503.18
i-881094,0.495,136.37
i-881095,0.483,1161.75
i-881096,0.483,1161.75
i-881097,0.28,474.64
i-881098,1.28,158.55
i-881099,0.28,474.64
i-881100,0.28,95.13
i-881101,0.2,42.27
i-881102,0.44,503.18
i-881103,0.166,844.62
i-881104,0.28,474.64
i-881105,0.483,1161.75
i-881106,1.25,2325.62
i-881107,0.44,503.18
i-881108,0.28,95.13
i-881109,1.25,2325.62
i-881110,0.28,474.64
i-881111,0.483,1161.75
i-881112,0.98,137.41
i-881113,0.495,136.37
i-881114,1.28,158.55
i-881115,1.25,2325.62
i-881116,0.188,1214.61
i-881117,0.98,137.41
i-881118,0.172,738.91
i-881119,1.48,211.41
i-881120,0.21,559.21
i-881121,0.188,1214.61
i-881122,1.48,211.41
i-881123,0.495,136.37
i-881124,0.483,1161.75
i-881125,0.172,738.91
i-881126,0.21,559.21
i-881127,0.166,844.62
i-881128,0.172,738.91
i-881129,0.78,105.7
i-881130,0.98,137.41
i-881131,1.48,211.41
i-881132,0.483,1161.75
i-881133,0.28,95.13
i-881134,0.166,844.62
i-881135,0.495,136.37
i-881136,0.38,31.7
i-881137,0.483,84.56
i-881138,0.483,1161.75
i-881139,0.88,95.13
i-881140,0.166,844.62
i-881141,0.483,523.26
i-881142,0.188,1214.61
i-881143,0.21,559.21
i-881144,0.21,559.21
i-881145,0.28,95.13
i-881146,0.2,42.27
i-881147,0.44,503.18
i-881148,0.98,137.41
i-881149,0.483,523.26
i-881150,0.21,559.21
i-881151,0.28,95.13
i-881152,0.2,42.27
i-881153,0.2,42.27
i-881154,0.28,95.13
i-881155,0.188,1214.61
i-881156,0.44,503.18
i-881157,0.38,31.7
i-881158,0.483,84.56
i-881159,1.48,211.41
i-881160,0.21,559.21
i-881161,0.483,84.56
i-881162,0.172,738.91
i-881163,0.21,559.21
i-881164,0.483,523.26
i-881165,0.44,503.18
i-881166,0.28,95.13
i-881167,0.44,503.18
i-881168,0.2,42.27
i-881169,0.44,503.18
i-881170,0.483,1161.75
i-881171,0.88,95.13
i-881172,0.2,42.27
i-881173,0.38,31.7
i-881174,1.28,158.55
i-881175,0.483,84.56
i-881176,0.21,559.21
i-881177,0.495,136.37
i-881178,0.166,844.62
i-881179,0.188,1214.61
i-881180,0.2,42.27
i-881181,0.483,1161.75
i-881182,0.28,474.64
i-881183,0.188,1214.61
i-881184,0.21,559.21
i-881185,0.21,559.21
i-881186,1.37,2642.75
i-881187,1.37,2642.75
i-881188,0.495,136.37
i-881189,0.495,136.37
i-881190,0.98,137.41
i-881191,0.78,105.7
i-881192,0.495,136.37
i-881193,0.98,137.41
i-881194,0.483,1161.75
i-881195,1.28,158.55
i-881196,0.483,1161.75
i-881197,0.78,105.7
i-881198,1.25,2325.62
i-881199,0.483,84.56
i-881200,0.495,136.37
i-881201,0.98,137.41
i-881202,1.48,211.41
i-881203,0.21,559.21
i-881204,0.483,523.26
i-881205,0.38,31.7
i-881206,0.21,559.21
i-881207,0.28,474.64
i-881208,0.88,95.13
i-881209,0.78,105.7
i-881210,0.28,95.13
i-881211,1.37,2642.75
i-881212,0.483,84.56
i-881213,0.166,844.62
i-881214,0.483,523.26
i-881215,1.25,2325.62
i-881216,0.38,31.7
i-881217,1.48,211.41
i-881218,0.28,474.64
i-881219,0.483,1161.75
i-881220,0.28,95.13
i-881221,0.28,474.64
i-881222,0.44,503.18
i-881223,1.28,158.55
i-881224,0.28,95.13
i-881225,0.78,105.7
i-881226,1.28,158.55
i-881227,0.495,136.37
i-881228,0.166,844.62
i-881229,0.2,42.27
i-881230,0.88,95.13
i-881231,0.98,137.41
i-881232,1.48,211.41
i-881233,0.98,137.41
i-881234,1.48,211.41
i-881235,0.78,105.7
i-881236,0.495,136.37
i-881237,0.98,137.41
i-881238,0.21,559.21
i-881239,0.28,474.64
i-881240,0.166,844.62
i-881241,1.28,158.55
i-881242,0.166,844.62
i-881243,1.48,211.41
i-881244,0.2,42.27
i-881245,0.2,42.27
i-881246,0.28,474.64
i-881247,0.495,136.37
i-881248,0.28,474.64
i-881249,0.483,84.56
i-881250,1.28,158.55
i-881251,1.48,211.41
i-881252,0.28,95.13
i-881253,0.28,95.13
i-881254,0.495,136.37
i-881255,0.28,95.13
i-881256,0.2,42.27
i-881257,0.172,738.91
i-881258,0.38,31.7
i-881259,1.37,2642.75
i-881260,0.188,1214.61
i-881261,1.48,211.41
i-881262,1.28,158.55
i-881263,0.483,523.26
i-881264,0.495,136.37
i-881265,0.188,1214.61
i-881266,0.483,523.26
i-881267,0.88,95.13
i-881268,0.495,136.37
i-881269,1.25,2325.62
i-881270,0.28,95.13
i-881271,0.21,559.21
i-881272,0.28,474.64
i-881273,0.2,42.27
i-881274,0.38,31.7
i-881275,0.166,844.62
i-881276,0.172,738.91
i-881277,0.483,523.26
i-881278,0.188,1214.61
i-881279,0.483,523.26
i-881280,0.495,136.37
i-881281,1.37,2642.75
i-881282,0.28,95.13
i-881283,0.44,503.18
i-881284,1.28,158.55
i-881285,0.483,1161.75
i-881286,0.172,738.91
i-881287,0.483,84.56
i-881288,0.44,503.18
i-881289,0.44,503.18
i-881290,0.495,136.37
i-881291,0.21,559.21
i-881292,0.78,105.7
i-881293,0.2,42.27
i-881294,0.495,136.37
i-881295,0.2,42.27
i-881296,0.166,844.62
i-881297,0.28,474.64
i-881298,1.25,2325.62
i-881299,1.25,2325.62
i-881300,0.483,84.56
i-881301,0.166,844.62
i-881302,1.25,2325.62
i-881303,0.172,738.91
i-881304,0.2,42.27
i-881305,0.28,474.64
i-881306,1.25,2325.62
i-881307,0.483,84.56
i-881308,0.28,95.13
i-881309,0.483,84.56
i-881310,0.78,105.7
i-881311,0.21,559.21
i-881312,0.483,523.26
i-881313,0.28,95.13
i-881314,0.28,474.64
i-881315,0.2,42.27
i-881316,0.2,42.27
i-881317,0.28,474.64
i-881318,1.28,158.55
i-881319,0.166,844.62
i-881320,0.495,136.37
i-881321,0.21,559.21
i-881322,0.483,84.56
i-881323,1.48,211.41
i-881324,0.483,84.56
i-881325,0.98,137.41
i-881326,0.28,474.64
i-881327,0.172,738.91
i-881328,0.483,1161.75
i-881329,1.37,2642.75
i-881330,0.21,559.21
i-881331,1.28,158.55
i-881332,0.28,474.64
i-881333,0.78,105.7
i-881334,0.28,474.64
i-881335,0.166,844.62
i-881336,1.48,211.41
i-881337,0.166,844.62
i-881338,0.483,84.56
i-881339,0.28,474.64
i-881340,0.28,95.13
i-881341,0.483,1161.75
i-881342,1.25,2325.62
i-881343,0.44,503.18
i-881344,1.37,2642.75
i-881345,0.28,95.13
i-881346,1.28,158.55
i-881347,0.188,1214.61
i-881348,0.44,503.18
i-881349,0.483,523.26
i-881350,1.25,2325.62
i-881351,0.98,137.41
i-881352,0.38,31.7
i-881353,0.38,31.7
i-881354,1.48,211.41
i-881355,0.98,137.41
i-881356,1.28,158.55
i-881357,1.25,2325.62
i-881358,0.98,137.41
i-881359,0.166,844.62
i-881360,0.38,31.7
i-881361,0.2,42.27
i-881362,1.37,2642.75
i-881363,0.2,42.27
i-881364,0.78,105.7
i-881365,0.172,738.91
i-881366,0.483,523.26
i-881367,0.172,738.91
i-881368,0.172,738.91
i-881369,0.28,95.13
i-881370,0.98,137.41
i-881371,0.28,95.13
i-881372,0.188,1214.61
i-881373,1.28,158.55
i-881374,0.98,137.41
i-881375,0.483,1161.75
i-881376,0.483,523.26
i-881377,0.172,738.91
i-881378,0.78,105.7
i-881379,1.28,158.55
i-881380,0.28,474.64
i-881381,0.28,95.13
i-881382,0.483,1161.75
i-881383,1.25,2325.62
i-881384,0.98,137.41
i-881385,0.483,1161.75
i-881386,0.28,95.13
i-881387,1.28,158.55
i-881388,0.483,523.26
i-881389,0.2,42.27
i-881390,0.98,137.41
i-881391,0.38,31.7
i-881392,0.21,559.21
i-881393,0.2,42.27
i-881394,0.21,559.21
i-881395,0.166,844.62
i-881396,0.495,136.37
i-881397,0.78,105.7
i-881398,0.28,95.13
i-881399,1.25,2325.62
i-881400,0.483,523.26
i-881401,1.48,211.41
i-881402,0.495,136.37
i-881403,0.78,105.7
i-881404,0.78,105.7
i-881405,0.495,136.37
i-881406,1.48,211.41
i-881407,1.48,211.41
i-881408,0.2,42.27
i-881409,0.166,844.62
i-881410,0.28,474.64
i-881411,0.44,503.18
i-881412,1.37,2642.75
i-881413,0.166,844.62
i-881414,0.21,559.21
i-881415,0.38,31.7
i-881416,0.483,84.56
i-881417,1.37,2642.75
i-881418,0.21,559.21
i-881419,0.2,42.27
i-881420,0.483,523.26
i-881421,0.38,31.7
i-881422,0.172,738.91
i-881423,0.2,42.27
i-881424,1.25,2325.62
i-881425,0.38,31.7
i-881426,0.2,42.27
i-881427,0.44,503.18
i-881428,0.2,42.27
i-881429,0.28,474.64
i-881430,0.166,844.62
i-881431,0.21,559.21
i-881432,0.495,136.37
i-881433,0.483,84.56
i-881434,1.37,2642.75
i-881435,0.98,137.41
i-881436,0.21,559.21
i-881437,0.21,559.21
i-881438,0.483,523.26
i-881439,1.37,2642.75
i-881440,0.188,1214.61
i-881441,0.28,474.64
i-881442,0.78,105.7
i-881443,0.495,136.37
i-881444,1.25,2325.62
i-881445,0.98,137.41
i-881446,0.166,844.62
i-881447,0.172,738.91
i-881448,0.28,474.64
i-881449,1.37,2642.75
i-881450,0.188,1214.61
i-881451,0.166,844.62
i-881452,0.44,503.18
i-881453,0.483,1161.75
i-881454,0.483,84.56
i-881455,1.28,158.55
i-881456,0.44,503.18
i-881457,1.37,2642.75
i-881458,0.483,1161.75
i-881459,0.495,136.37
i-881460,0.172,738.91
i-881461,0.44,503.18
i-881462,0.483,523.26
i-881463,1.48,211.41
i-881464,0.483,84.56
i-881465,0.483,1161.75
i-881466,0.483,523.26
i-881467,0.98,137.41
i-881468,0.78,105.7
i-881469,0.166,844.62
i-881470,0.483,523.26
i-881471,0.44,503.18
i-881472,0.495,136.37
i-881473,0.44,503.18
i-881474,0.483,523.26
i-881475,0.38,31.7
i-881476,0.44,503.18
i-881477,1.37,2642.75
i-881478,0.98,137.41
i-881479,0.88,95.13
i-881480,0.483,1161.75
i-881481,1.28,158.55
i-881482,1.28,158.55
i-881483,0.188,1214.61
i-881484,0.166,844.62
i-881485,0.78,105.7
i-881486,0.88,95.13
i-881487,1.28,158.55
i-881488,1.28,158.55
i-881489,0.483,523.26
i-881490,0.38,31.7
i-881491,0.88,95.13
i-881492,0.38,31.7
i-881493,1.25,2325.62
i-881494,0.28,95.13
i-881495,0.188,1214.61
i-881496,0.98,137.41
i-881497,1.37,2642.75
i-881498,0.172,738.91
i-881499,0.88,95.13
i-881500,1.28,158.55
i-881501,0.38,31.7
i-881502,0.21,559.21
i-881503,0.188,1214.61
i-881504,0.88,95.13
i-881505,0.495,136.37
i-881506,1.25,2325.62
i-881507,0.21,559.21
i-881508,1.37,2642.75
i-881509,0.98,137.41
i-881510,0.483,84.56
i-881511,0.2,42.27
i-881512,0.2,42.27
i-881513,0.88,95.13
i-881514,0.495,136.37
i-881515,0.188,1214.61
i-881516,1.28,158.55
i-881517,0.98,137.41
i-881518,0.483,523.26
i-881519,0.44,503.18
i-881520,1.37,2642.75
i-881521,0.188,1214.61
i-881522,0.188,1214.61
i-881523,1.37,2642.75
i-881524,0.483,1161.75
i-881525,0.166,844.62
i-881526,1.48,211.41
i-881527,0.28,95.13
i-881528,0.28,95.13
i-881529,0.2,42.27
i-881530,0.166,844.62
i-881531,0.172,738.91
i-881532,0.98,137.41
i-881533,0.78,105.7
i-881534,0.483,523.26
i-881535,1.25,2325.62
i-881536,1.37,2642.75
i-881537,0.98,137.41
i-881538,0.78,105.7
i-881539,0.88,95.13
i-881540,0.38,31.7
i-881541,0.495,136.37
i-881542,0.483,1161.75
i-881543,0.166,844.62
i-881544,0.2,42.27
i-881545,0.483,1161.75
i-881546,0.44,503.18
i-881547,0.78,105.7
i-881548,0.28,95.13
i-881549,0.2,42.27
i-881550,0.188,1214.61
i-881551,0.188,1214.61
i-881552,0.172,738.91
i-881553,1.28,158.55
i-881554,0.2,42.27
i-881555,1.37,2642.75
i-881556,0.483,523.26
i-881557,0.88,95.13
i-881558,0.28,474.64
i-881559,0.28,95.13
i-881560,0.21,559.21
i-881561,1.37,2642.75
i-881562,0.78,105.7
i-881563,0.483,523.26
i-881564,0.172,738.91
i-881565,0.2,42.27
i-881566,1.28,158.55
i-881567,0.483,84.56
i-881568,0.2,42.27
i-881569,0.88,95.13
i-881570,0.28,474.64
i-881571,0.483,1161.75
i-881572,0.78,105.7
i-881573,1.48,211.41
i-881574,0.88,95.13
i-881575,0.495,136.37
i-881576,1.37,2642.75
i-881577,0.483,1161.75
i-881578,0.38,31.7
i-881579,0.98,137.41
i-881580,0.483,84.56
i-881581,0.98,137.41
i-881582,0.483,84.56
i-881583,0.44,503.18
i-881584,0.88,95.13
i-881585,0.28,474.64
i-881586,0.28,95.13
i-881587,0.78,105.7
i-881588,0.44,503.18
i-881589,0.28,474.64
i-881590,0.38,31.7
i-881591,1.37,2642.75
i-881592,0.166,844.62
i-881593,0.38,31.7
i-881594,1.25,2325.62
i-881595,1.48,211.41
i-881596,0.98,137.41
i-881597,0.88,95.13
i-881598,0.44,503.18
i-881599,0.495,136.37
i-881600,0.495,136.37
i-881601,0.495,136.37
i-881602,0.88,95.13
i-881603,0.21,559.21
i-881604,0.483,84.56
i-881605,0.44,503.18
i-881606,0.483,84.56
i-881607,0.483,84.56
i-881608,1.48,211.41
i-881609,1.25,2325.62
i-881610,0.44,503.18
i-881611,1.25,2325.62
i-881612,0.21,559.21
i-881613,0.28,95.13
i-881614,0.28,474.64
i-881615,0.166,844.62
i-881616,0.88,95.13
i-881617,0.495,136.37
i-881618,0.172,738.91
i-881619,0.28,474.64
i-881620,0.483,523.26
i-881621,0.28,95.13
i-881622,0.88,95.13
i-881623,1.37,2642.75
i-881624,0.483,1161.75
i-881625,0.21,559.21
i-881626,0.483,1161.75
i-881627,1.48,211.41
i-881628,0.2,42.27
i-881629,0.98,137.41
i-881630,0.98,137.41
i-881631,0.172,738.91
i-881632,1.48,211.41
i-881633,0.28,474.64
i-881634,0.38,31.7
i-881635,1.48,211.41
i-881636,0.88,95.13
i-881637,1.48,211.41
i-881638,0.166,844.62
i-881639,0.2,42.27
i-881640,0.483,523.26
i-881641,0.172,738.91
i-881642,0.483,1161.75
i-881643,1.48,211.41
i-881644,0.28,95.13
i-881645,0.98,137.41
i-881646,1.37,2642.75
i-881647,0.172,738.91
i-881648,0.188,1214.61
i-881649,0.38,31.7
i-881650,0.78,105.7
i-881651,0.28,474.64
i-881652,0.483,1161.75
i-881653,0.483,84.56
i-881654,0.483,1161.75
i-881655,0.2,42.27
i-881656,0.166,844.62
i-881657,0.188,1214.61
i-881658,1.48,211.41
i-881659,0.495,136.37
i-881660,0.28,474.64
i-881661,0.28,95.13
i-881662,0.88,95.13
i-881663,0.483,84.56
i-881664,1.25,2325.62
i-881665,0.483,84.56
i-881666,1.25,2325.62
i-881667,0.483,84.56
i-881668,0.28,474.64
i-881669,0.483,84.56
i-881670,1.37,2642.75
i-881671,1.25,2325.62
i-881672,1.37,2642.75
i-881673,0.28,95.13
i-881674,0.21,559.21
i-881675,0.28,95.13
i-881676,0.21,559.21
i-881677,1.37,2642.75
i-881678,0.28,474.64
i-881679,0.78,105.7
i-881680,1.28,158.55
i-881681,1.48,211.41
i-881682,1.37,2642.75
i-881683,0.28,95.13
i-881684,0.98,137.41
i-881685,0.78,105.7
i-881686,0.483,84.56
i-881687,0.28,474.64
i-881688,1.37,2642.75
i-881689,0.28,474.64
i-881690,0.495,136.37
i-881691,0.28,474.64
i-881692,0.483,84.56
i-881693,0.172,738.91
i-881694,0.78,105.7
i-881695,0.495,136.37
i-881696,0.28,474.64
i-881697,1.37,2642.75
i-881698,0.28,95.13
i-881699,0.88,95.13
i-881700,1.37,2642.75
i-881701,0.188,1214.61
i-881702,0.98,137.41
i-881703,0.28,474.64
i-881704,0.88,95.13
i-881705,0.28,95.13
i-881706,1.25,2325.62
i-881707,1.25,2325.62
i-881708,1.28,158.55
i-881709,0.2,42.27
i-881710,0.188,1214.61
i-881711,0.88,95.13
i-881712,1.28,158.55
i-881713,0.166,844.62
i-881714,0.98,137.41
i-881715,0.188,1214.61
i-881716,1.28,158.55
i-881717,0.28,95.13
i-881718,1.37,2642.75
i-881719,0.2,42.27
i-881720,0.483,84.56
i-881721,0.2,42.27
i-881722,0.166,844.62
i-881723,1.28,158.55
i-881724,1.25,2325.62
i-881725,0.483,523.26
i-881726,0.44,503.18
i-881727,0.28,95.13
i-881728,0.188,1214.61
i-881729,0.495,136.37
i-881730,0.78,105.7
i-881731,0.98,137.41
i-881732,1.28,158.55
i-881733,0.78,105.7
i-881734,0.483,523.26
i-881735,0.483,523.26
i-881736,0.28,95.13
i-881737,0.78,105.7
i-881738,1.37,2642.75
i-881739,0.483,84.56
i-881740,0.28,95.13
i-881741,0.188,1214.61
i-881742,0.28,95.13
i-881743,1.37,2642.75
i-881744,1.37,2642.75
i-881745,0.88,95.13
i-881746,1.48,211.41
i-881747,0.2,42.27
i-881748,1.37,2642.75
i-881749,0.38,31.7
i-881750,1.28,158.55
i-881751,0.172,738.91
i-881752,1.28,158.55
i-881753,0.483,1161.75
i-881754,0.21,559.21
i-881755,0.483,523.26
i-881756,0.28,474.64
i-881757,0.483,523.26
i-881758,0.38,31.7
i-881759,0.172,738.91
i-881760,0.78,105.7
i-881761,1.48,211.41
i-881762,1.25,2325.62
i-881763,0.2,42.27
i-881764,0.483,84.56
i-881765,0.44,503.18
i-881766,0.483,84.56
i-881767,0.78,105.7
i-881768,1.48,211.41
i-881769,0.188,1214.61
i-881770,0.483,1161.75
i-881771,0.483,84.56
i-881772,1.25,2325.62
i-881773,0.88,95.13
i-881774,1.28,158.55
i-881775,0.98,137.41
i-881776,0.495,136.37
i-881777,0.78,105.7
i-881778,0.28,474.64
i-881779,0.38,31.7
i-881780,0.28,95.13
i-881781,0.483,1161.75
i-881782,0.21,559.21
i-881783,0.2,42.27
i-881784,0.78,105.7
i-881785,0.44,503.18
i-881786,0.28,474.64
i-881787,0.483,84.56
i-881788,0.483,84.56
i-881789,0.98,137.41
i-881790,0.2,42.27
i-881791,0.28,95.13
i-881792,1.48,211.41
i-881793,0.2,42.27
i-881794,0.28,95.13
i-881795,0.166,844.62
i-881796,0.88,95.13
i-881797,0.166,844.62
i-881798,0.483,84.56
i-881799,1.37,2642.75
i-881800,1.25,2325.62
i-881801,0.2,42.27
i-881802,0.38,31.7
i-881803,0.98,137.41
i-881804,0.38,31.7
i-881805,0.188,1214.61
i-881806,0.2,42.27
i-881807,0.483,84.56
i-881808,0.483,1161.75
i-881809,1.37,2642.75
i-881810,0.98,137.41
i-881811,0.495,136.37
i-881812,0.172,738.91
i-881813,0.483,523.26
i-881814,0.88,95.13
i-881815,0.78,105.7
i-881816,0.21,559.21
i-881817,0.483,84.56
i-881818,1.48,211.41
i-881819,0.28,95.13
i-881820,1.28,158.55
i-881821,1.48,211.41
i-881822,0.495,136.37
i-881823,0.78,105.7
i-881824,0.28,474.64
i-881825,1.25,2325.62
i-881826,0.483,84.56
i-881827,0.483,84.56
i-881828,0.188,1214.61
i-881829,1.25,2325.62
i-881830,0.88,95.13
i-881831,0.172,738.91
i-881832,0.483,84.56
i-881833,0.28,474.64
i-881834,0.44,503.18
i-881835,0.172,738.91
i-881836,0.172,738.91
i-881837,1.25,2325.62
i-881838,0.188,1214.61
i-881839,0.21,559.21
i-881840,0.188,1214.61
i-881841,1.25,2325.62
i-881842,0.483,1161.75
i-881843,0.483,84.56
i-881844,1.25,2325.62
i-881845,0.188,1214.61
i-881846,0.28,95.13
i-881847,0.28,95.13
i-881848,1.28,158.55
i-881849,0.98,137.41
i-881850,0.28,95.13
i-881851,0.483,1161.75
i-881852,0.172,738.91
i-881853,0.44,503.18
i-881854,1.25,2325.62
i-881855,0.495,136.37
i-881856,1.28,158.55
i-881857,0.21,559.21
i-881858,0.38,31.7
i-881859,0.98,137.41
i-881860,0.21,559.21
i-881861,0.483,84.56
i-881862,0.166,844.62
i-881863,0.28,474.64
i-881864,0.166,844.62
i-881865,0.28,95.13
i-881866,0.483,84.56
i-881867,0.44,503.18
i-881868,0.88,95.13
i-881869,1.25,2325.62
i-881870,0.2,42.27
i-881871,0.28,474.64
i-881872,0.483,523.26
i-881873,1.37,2642.75
i-881874,0.88,95.13
i-881875,0.188,1214.61
i-881876,1.25,2325.62
i-881877,0.78,105.7
i-881878,0.98,137.41
i-881879,0.483,84.56
i-881880,0.98,137.41
i-881881,1.28,158.55
i-881882,0.495,136.37
i-881883,0.172,738.91
i-881884,0.88,95.13
i-881885,1.25,2325.62
i-881886,0.483,1161.75
i-881887,0.44,503.18
i-881888,0.28,474.64
i-881889,0.21,559.21
i-881890,0.2,42.27
i-881891,1.28,158.55
i-881892,0.38,31.7
i-881893,0.28,474.64
i-881894,1.25,2325.62
i-881895,0.166,844.62
i-881896,0.28,95.13
i-881897,0.166,844.62
i-881898,0.166,844.62
i-881899,0.98,137.41
i-881900,0.98,137.41
i-881901,0.28,95.13
i-881902,0.166,844.62
i-881903,0.28,95.13
i-881904,0.98,137.41
i-881905,0.166,844.62
i-881906,0.483,523.26
i-881907,0.88,95.13
i-881908,1.28,158.55
i-881909,0.78,105.7
i-881910,0.88,95.13
i-881911,0.188,1214.61
i-881912,1.25,2325.62
i-881913,1.25,2325.62
i-881914,0.2,42.27
i-881915,0.172,738.91
i-881916,0.172,738.91
i-881917,0.28,474.64
i-881918,0.78,105.7
i-881919,0.44,503.18
i-881920,0.98,137.41
i-881921,0.21,559.21
i-881922,0.21,559.21
i-881923,1.25,2325.62
i-881924,0.38,31.7
i-881925,0.188,1214.61
i-881926,0.495,136.37
i-881927,0.28,474.64
i-881928,0.98,137.41
i-881929,0.78,105.7
i-881930,0.38,31.7
i-881931,0.172,738.91
i-881932,0.188,1214.61
i-881933,0.21,559.21
i-881934,0.188,1214.61
i-881935,0.38,31.7
i-881936,0.483,523.26
i-881937,1.25,2325.62
i-881938,0.98,137.41
i-881939,0.172,738.91
i-881940,0.2,42.27
i-881941,0.483,1161.75
i-881942,0.483,84.56
i-881943,1.48,211.41
i-881944,0.88,95.13
i-881945,0.166,844.62
i-881946,1.37,2642.75
i-881947,0.38,31.7
i-881948,0.88,95.13
i-881949,1.25,2325.62
i-881950,0.28,95.13
i-881951,0.88,95.13
i-881952,0.21,559.21
i-881953,1.28,158.55
i-881954,0.495,136.37
i-881955,0.38,31.7
i-881956,0.28,474.64
i-881957,0.483,1161.75
i-881958,0.38,31.7
i-881959,0.78,105.7
i-881960,0.483,84.56
i-881961,0.495,136.37
i-881962,0.88,95.13
i-881963,0.28,95.13
i-881964,0.78,105.7
i-881965,0.21,559.21
i-881966,0.28,474.64
i-881967,0.483,523.26
i-881968,0.166,844.62
i-881969,0.172,738.91
i-881970,0.483,1161.75
i-881971,0.2,42.27
i-881972,0.483,84.56
i-881973,0.483,84.56
i-881974,0.2,42.27
i-881975,0.483,523.26
i-881976,0.28,95.13
i-881977,0.28,95.13
i-881978,0.78,105.7
i-881979,1.37,2642.75
i-881980,0.28,474.64
i-881981,0.28,474.64
i-881982,0.21,559.21
i-881983,0.166,844.62
i-881984,0.483,523.26
i-881985,0.88,95.13
i-881986,0.483,84.56
i-881987,0.28,95.13
i-881988,0.28,95.13
i-881989,0.44,503.18
i-881990,0.483,1161.75
i-881991,1.28,158.55
i-881992,0.21,559.21
i-881993,0.44,503.18
i-881994,1.28,158.55
i-881995,0.166,844.62
i-881996,1.28,158.55
i-881997,0.21,559.21
i-881998,0.28,95.13
i-881999,0.78,105.7
i-882000,0.88,95.13
i-882001,0.88,95.13
i-882002,0.88,95.13
i-882003,0.98,137.41
i-882004,0.28,474.64
i-882005,0.78,105.7
i-882006,0.172,738.91
i-882007,0.28,474.64
i-882008,0.495,136.37
i-882009,1.48,211.41
i-882010,0.2,42.27
i-882011,1.37,2642.75
i-882012,0.2,42.27
i-882013,0.166,844.62
i-882014,0.28,474.64
i-882015,0.483,523.26
i-882016,0.38,31.7
i-882017,0.483,523.26
i-882018,1.28,158.55
i-882019,0.98,137.41
i-882020,0.483,1161.75
i-882021,0.98,137.41
i-882022,0.2,42.27
i-882023,1.28,158.55
i-882024,0.2,42.27
i-882025,0.44,503.18
i-882026,0.44,503.18
i-882027,1.37,2642.75
i-882028,0.172,738.91
i-882029,0.98,137.41
i-882030,0.483,84.56
i-882031,0.28,95.13
i-882032,0.483,1161.75
i-882033,0.495,136.37
i-882034,0.21,559.21
i-882035,1.37,2642.75
i-882036,0.483,84.56
i-882037,1.25,2325.62
i-882038,0.78,105.7
i-882039,0.495,136.37
i-882040,1.48,211.41
i-882041,0.88,95.13
i-882042,1.28,158.55
i-882043,0.483,1161.75
i-882044,0.44,503.18
i-882045,0.88,95.13
i-882046,0.495,136.37
i-882047,1.28,158.55
i-882048,1.37,2642.75
i-882049,0.172,738.91
i-882050,0.44,503.18
i-882051,0.21,559.21
i-882052,1.37,2642.75
i-882053,0.166,844.62
i-882054,0.483,84.56
i-882055,1.28,158.55
i-882056,0.166,844.62
i-882057,1.25,2325.62
i-882058,0.98,137.41
i-882059,0.78,105.7
i-882060,0.483,1161.75
i-882061,0.88,95.13
i-882062,1.37,2642.75
i-882063,0.88,95.13
i-882064,0.495,136.37
i-882065,0.2,42.27
i-882066,0.172,738.91
i-882067,0.28,95.13
i-882068,0.495,136.37
i-882069,1.37,2642.75
i-882070,0.188,1214.61
i-882071,0.483,1161.75
i-882072,0.88,95.13
i-882073,0.44,503.18
i-882074,0.98,137.41
i-882075,0.44,503.18
i-882076,0.483,1161.75
i-882077,0.495,136.37
i-882078,0.166,844.62
i-882079,1.48,211.41
i-882080,0.495,136.37
i-882081,0.98,137.41
i-882082,0.483,523.26
i-882083,0.88,95.13
i-882084,1.28,158.55
i-882085,1.28,158.55
i-882086,0.88,95.13
i-882087,1.37,2642.75
i-882088,0.166,844.62
i-882089,0.2,42.27
i-882090,0.188,1214.61
i-882091,0.88,95.13
i-882092,0.483,523.26
i-882093,0.166,844.62
i-882094,0.44,503.18
i-882095,0.98,137.41
i-882096,1.25,2325.62
i-882097,0.188,1214.61
i-882098,0.495,136.37
i-882099,0.188,1214.61
i-882100,1.25,2325.62
i-882101,1.28,158.55
i-882102,0.172,738.91
i-882103,0.44,503.18
i-882104,0.172,738.91
i-882105,1.37,2642.75
i-882106,1.48,211.41
i-882107,1.37,2642.75
i-882108,0.28,95.13
i-882109,0.172,738.91
i-882110,0.44,503.18
i-882111,1.25,2325.62
i-882112,1.48,211.41
i-882113,1.37,2642.75
i-882114,1.48,211.41
i-882115,0.98,137.41
i-882116,0.28,95.13
i-882117,0.172,738.91
i-882118,0.88,95.13
i-882119,0.483,523.26
i-882120,0.44,503.18
i-882121,1.37,2642.75
i-882122,0.2,42.27
i-882123,0.188,1214.61
i-882124,0.2,42.27
i-882125,1.37,2642.75
i-882126,0.483,1161.75
i-882127,0.2,42.27
i-882128,0.495,136.37
i-882129,0.88,95.13
i-882130,1.48,211.41
i-882131,0.2,42.27
i-882132,0.98,137.41
i-882133,0.44,503.18
i-882134,0.495,136.37
i-882135,0.88,95.13
i-882136,0.495,136.37
i-882137,0.166,844.62
i-882138,0.483,1161.75
i-882139,0.88,95.13
i-882140,0.28,474.64
i-882141,1.37,2642.75
i-882142,0.44,503.18
i-882143,0.188,1214.61
i-882144,0.483,1161.75
i-882145,0.78,105.7
i-882146,0.172,738.91
i-882147,0.28,95.13
i-882148,0.88,95.13
i-882149,0.28,474.64
i-882150,0.78,105.7
i-882151,1.28,158.55
i-882152,0.98,137.41
i-882153,0.98,137.41
i-882154,0.2,42.27
i-882155,0.483,523.26
i-882156,0.483,1161.75
i-882157,0.483,84.56
i-882158,0.483,523.26
i-882159,0.28,95.13
i-882160,0.172,738.91
i-882161,0.483,84.56
i-882162,0.188,1214.61
i-882163,0.78,105.7
i-882164,0.483,523.26
i-882165,0.28,95.13
i-882166,0.88,95.13
i-882167,1.48,211.41
i-882168,1.37,2642.75
i-882169,1.25,2325.62
i-882170,0.78,105.7
i-882171,0.44,503.18
i-882172,0.166,844.62
i-882173,0.78,105.7
i-882174,1.25,2325.62
i-882175,0.28,95.13
i-882176,0.38,31.7
i-882177,0.78,105.7
i-882178,1.28,158.55
i-882179,0.28,474.64
i-882180,0.78,105.7
i-882181,0.98,137.41
i-882182,0.98,137.41
i-882183,0.166,844.62
i-882184,0.98,137.41
i-882185,0.166,844.62
i-882186,1.37,2642.75
i-882187,0.21,559.21
i-882188,1.28,158.55
i-882189,0.88,95.13
i-882190,1.48,211.41
i-882191,0.483,1161.75
i-882192,0.483,84.56
i-882193,0.188,1214.61
i-882194,0.188,1214.61
i-882195,0.88,95.13
i-882196,0.28,474.64
i-882197,0.188,1214.61
i-882198,0.78,105.7
i-882199,0.21,559.21
i-882200,0.483,523.26
i-882201,0.483,1161.75
i-882202,0.495,136.37
i-882203,0.483,1161.75
i-882204,0.483,523.26
i-882205,0.483,1161.75
i-882206,1.28,158.55
i-882207,0.98,137.41
i-882208,0.28,474.64
i-882209,0.483,1161.75
i-882210,0.495,136.37
i-882211,0.78,105.7
i-882212,0.88,95.13
i-882213,0.78,105.7
i-882214,0.172,738.91
i-882215,0.2,42.27
i-882216,0.172,738.91
i-882217,0.21,559.21
i-882218,0.166,844.62
i-882219,0.166,844.62
i-882220,0.38,31.7
i-882221,0.483,523.26
i-882222,0.88,95.13
i-882223,0.495,136.37
i-882224,0.28,95.13
i-882225,1.37,2642.75
i-882226,0.44,503.18
i-882227,0.2,42.27
i-882228,0.98,137.41
i-882229,1.48,211.41
i-882230,1.25,2325.62
i-882231,0.88,95.13
i-882232,1.28,158.55
i-882233,0.495,136.37
i-882234,0.98,137.41
i-882235,0.38,31.7
i-882236,0.483,84.56
i-882237,0.2,42.27
i-882238,0.495,136.37
i-882239,0.88,95.13
i-882240,0.495,136.37
i-882241,0.28,95.13
i-882242,1.37,2642.75
i-882243,0.483,1161.75
i-882244,0.28,95.13
i-882245,0.172,738.91
i-882246,0.21,559.21
i-882247,0.44,503.18
i-882248,0.38,31.7
i-882249,0.2,42.27
i-882250,0.38,31.7
i-882251,0.28,95.13
i-882252,0.98,137.41
i-882253,0.78,105.7
i-882254,0.483,1161.75
i-882255,0.188,1214.61
i-882256,0.28,95.13
i-882257,0.38,31.7
i-882258,0.21,559.21
i-882259,0.483,1161.75
i-882260,0.78,105.7
i-882261,0.98,137.41
i-882262,0.172,738.91
i-882263,0.44,503.18
i-882264,0.2,42.27
i-882265,0.188,1214.61
i-882266,1.37,2642.75
i-882267,0.483,84.56
i-882268,0.38,31.7
i-882269,0.28,474.64
i-882270,0.44,503.18
i-882271,1.37,2642.75
i-882272,0.28,474.64
i-882273,0.483,523.26
i-882274,1.48,211.41
i-882275,0.483,1161.75
i-882276,0.483,84.56
i-882277,0.495,136.37
i-882278,1.25,2325.62
i-882279,0.188,1214.61
i-882280,0.483,1161.75
i-882281,0.21,559.21
i-882282,0.166,844.62
i-882283,1.37,2642.75
i-882284,0.88,95.13
i-882285,1.25,2325.62
i-882286,0.483,523.26
i-882287,0.166,844.62
i-882288,0.98,137.41
i-882289,0.2,42.27
i-882290,0.483,1161.75
i-882291,1.25,2325.62
i-882292,0.172,738.91
i-882293,0.44,503.18
i-882294,0.188,1214.61
i-882295,0.166,844.62
i-882296,0.188,1214.61
i-882297,0.166,844.62
i-882298,0.166,844.62
i-882299,0.88,95.13
i-882300,1.28,158.55
i-882301,0.44,503.18
i-882302,0.495,136.37
i-882303,0.483,523.26
i-882304,0.188,1214.61
i-882305,0.78,105.7
i-882306,0.483,523.26
i-882307,0.44,503.18
i-882308,0.38,31.7
i-882309,0.483,523.26
i-882310,0.21,559.21
i-882311,0.483,523.26
i-882312,0.44,503.18
i-882313,0.2,42.27
i-882314,0.483,523.26
i-882315,1.28,158.55
i-882316,0.44,503.18
i-882317,0.38,31.7
i-882318,0.38,31.7
i-882319,0.38,31.7
i-882320,0.483,84.56
i-882321,0.166,844.62
i-882322,1.28,158.55
i-882323,0.188,1214.61
i-882324,0.44,503.18
i-882325,0.495,136.37
i-882326,0.483,523.26
i-882327,0.166,844.62
i-882328,0.166,844.62
i-882329,0.21,559.21
i-882330,0.483,1161.75
i-882331,0.28,474.64
i-882332,0.2,42.27
i-882333,0.483,1161.75
i-882334,1.28,158.55
i-882335,0.38,31.7
i-882336,0.166,844.62
i-882337,0.166,844.62
i-882338,0.38,31.7
i-882339,0.28,95.13
i-882340,0.172,738.91
i-882341,0.28,474.64
i-882342,0.88,95.13
i-882343,0.483,523.26
i-882344,0.188,1214.61
i-882345,0.78,105.7
i-882346,0.38,31.7
i-882347,0.495,136.37
i-882348,0.166,844.62
i-882349,1.28,158.55
i-882350,0.38,31.7
i-882351,0.483,84.56
i-882352,0.495,136.37
i-882353,0.28,474.64
i-882354,0.28,474.64
i-882355,1.28,158.55
i-882356,0.38,31.7
i-882357,0.483,84.56
i-882358,1.48,211.41
i-882359,0.38,31.7
i-882360,0.166,844.62
i-882361,0.28,474.64
i-882362,1.25,2325.62
i-882363,0.188,1214.61
i-882364,0.188,1214.61
i-882365,1.37,2642.75
i-882366,0.483,84.56
i-882367,1.37,2642.75
i-882368,0.495,136.37
i-882369,0.78,105.7
i-882370,0.166,844.62
i-882371,0.78,105.7
i-882372,0.172,738.91
i-882373,0.166,844.62
i-882374,0.2,42.27
i-882375,0.483,523.26
i-882376,0.78,105.7
i-882377,0.78,105.7
i-882378,0.21,559.21
i-882379,0.483,523.26
i-882380,0.495,136.37
i-882381,1.48,211.41
i-882382,0.21,559.21
i-882383,1.37,2642.75
i-882384,0.188,1214.61
i-882385,1.37,2642.75
i-882386,0.172,738.91
i-882387,0.495,136.37
i-882388,0.28,95.13
i-882389,0.21,559.21
i-882390,1.48,211.41
i-882391,1.37,2642.75
i-882392,1.28,158.55
i-882393,0.38,31.7
i-882394,0.483,523.26
i-882395,1.25,2325.62
i-882396,1.37,2642.75
i-882397,0.188,1214.61
i-882398,0.483,84.56
i-882399,0.495,136.37
i-882400,1.25,2325.62
i-882401,1.28,158.55
i-882402,1.48,211.41
i-882403,1.37,2642.75
i-882404,1.48,211.41
i-882405,0.483,523.26
i-882406,0.2,42.27
i-882407,0.78,105.7
i-882408,0.38,31.7
i-882409,0.172,738.91
i-882410,0.44,503.18
i-882411,0.78,105.7
i-882412,0.172,738.91
i-882413,0.28,474.64
i-882414,0.98,137.41
i-882415,1.48,211.41
i-882416,0.38,31.7
i-882417,0.44,503.18
i-882418,1.28,158.55
i-882419,0.495,136.37
i-882420,0.166,844.62
i-882421,0.88,95.13
i-882422,0.88,95.13
i-882423,1.25,2325.62
i-882424,0.98,137.41
i-882425,0.166,844.62
i-882426,0.483,84.56
i-882427,0.483,1161.75
i-882428,0.38,31.7
i-882429,0.166,844.62
i-882430,0.78,105.7
i-882431,0.495,136.37
i-882432,0.28,95.13
i-882433,0.188,1214.61
i-882434,1.37,2642.75
i-882435,0.98,137.41
i-882436,0.495,136.37
i-882437,0.495,136.37
i-882438,0.78,105.7
i-882439,1.28,158.55
i-882440,0.483,523.26
i-882441,0.483,84.56
i-882442,1.28,158.55
i-882443,0.483,84.56
i-882444,0.172,738.91
i-882445,0.2,42.27
i-882446,1.48,211.41
i-882447,1.37,2642.75
i-882448,1.25,2325.62
i-882449,0.88,95.13
i-882450,1.28,158.55
i-882451,1.48,211.41
i-882452,0.21,559.21
i-882453,0.483,84.56
i-882454,0.495,136.37
i-882455,0.483,1161.75
i-882456,0.38,31.7
i-882457,1.25,2325.62
i-882458,0.483,84.56
i-882459,0.78,105.7
i-882460,1.28,158.55
i-882461,0.495,136.37
i-882462,0.38,31.7
i-882463,0.38,31.7
i-882464,1.37,2642.75
i-882465,0.483,1161.75
i-882466,0.28,95.13
i-882467,1.28,158.55
i-882468,0.78,105.7
i-882469,0.2,42.27
i-882470,1.37,2642.75
i-882471,0.483,1161.75
i-882472,0.2,42.27
i-882473,0.38,31.7
i-882474,1.37,2642.75
i-882475,0.2,42.27
i-882476,0.21,559.21
i-882477,0.44,503.18
i-882478,0.2,43.27
i-882479,1.28,162.28
i-882480,0.44,515.03
i-882481,0.88,97.37
i-882482,0.44,515.03
i-882483,0.78,108.19
i-882484,0.495,139.58
i-882485,0.172,756.32
i-882486,0.483,86.55
i-882487,0.78,108.19
i-882488,0.98,140.65
i-882489,0.44,515.03
i-882490,0.483,535.59
i-882491,0.2,43.27
i-882492,0.483,535.59
i-882493,0.172,756.32
i-882494,0.483,1189.12
i-882495,0.28,485.82
i-882496,1.37,2705.0
i-882497,0.495,139.58
i-882498,0.44,515.03
i-882499,0.188,1243.22
i-882500,0.78,108.19
i-882501,0.166,864.52
i-882502,0.88,97.37
i-882503,0.28,485.82
i-882504,1.28,162.28
i-882505,1.37,2705.0
i-882506,0.21,572.38
i-882507,0.166,864.52
i-882508,0.188,1243.22
i-882509,0.88,97.37
i-882510,0.2,43.27
i-882511,0.21,572.38
i-882512,0.483,1189.12
i-882513,1.37,2705.0
i-882514,1.48,216.39
i-882515,0.172,756.32
i-882516,0.483,1189.12
i-882517,1.25,2380.4
i-882518,1.25,2380.4
i-882519,0.28,97.37
i-882520,0.495,139.58
i-882521,0.28,485.82
i-882522,0.172,756.32
i-882523,0.495,139.58
i-882524,1.28,162.28
i-882525,1.28,162.28
i-882526,0.78,108.19
i-882527,0.483,1189.12
i-882528,1.28,162.28
i-882529,0.483,86.55
i-882530,1.48,216.39
i-882531,0.483,1189.12
i-882532,0.166,864.52
i-882533,1.25,2380.4
i-882534,0.495,139.58
i-882535,0.21,572.38
i-882536,0.44,515.03
i-882537,0.495,139.58
i-882538,0.188,1243.22
i-882539,0.78,108.19
i-882540,0.28,485.82
i-882541,0.483,1189.12
i-882542,0.44,515.03
i-882543,0.38,32.45
i-882544,0.483,1189.12
i-882545,0.483,1189.12
i-882546,1.37,2705.0
i-882547,0.44,515.03
i-882548,1.37,2705.0
i-882549,0.78,108.19
i-882550,0.38,32.45
i-882551,1.25,2380.4
i-882552,0.21,572.38
i-882553,0.21,572.38
i-882554,0.98,140.65
i-882555,0.78,108.19
i-882556,0.78,108.19
i-882557,1.37,2705.0
i-882558,0.188,1243.22
i-882559,0.172,756.32
i-882560,0.483,86.55
i-882561,0.28,485.82
i-882562,0.188,1243.22
i-882563,0.495,139.58
i-882564,0.38,32.45
i-882565,1.25,2380.4
i-882566,1.25,2380.4
i-882567,0.44,515.03
i-882568,0.483,1189.12
i-882569,0.78,108.19
i-882570,0.172,756.32
i-882571,0.98,140.65
i-882572,1.48,216.39
i-882573,0.88,97.37
i-882574,1.28,162.28
i-882575,0.98,140.65
i-882576,0.483,86.55
i-882577,1.25,2380.4
i-882578,0.2,43.27
i-882579,0.2,43.27
i-882580,0.78,108.19
i-882581,1.28,162.28
i-882582,0.28,485.82
i-882583,0.2,43.27
i-882584,0.188,1243.22
i-882585,1.25,2380.4
i-882586,0.38,32.45
i-882587,1.25,2380.4
i-882588,1.37,2705.0
i-882589,1.48,216.39
i-882590,0.28,97.37
i-882591,1.48,216.39
i-882592,0.78,108.19
i-882593,0.88,97.37
i-882594,0.2,43.27
i-882595,0.44,515.03
i-882596,0.483,535.59
i-882597,0.21,572.38
i-882598,0.495,139.58
i-882599,0.483,1189.12
i-882600,0.21,572.38
i-882601,0.88,97.37
i-882602,0.38,32.45
i-882603,0.2,43.27
i-882604,0.21,572.38
i-882605,0.28,97.37
i-882606,1.48,216.39
i-882607,0.188,1243.22
i-882608,0.98,140.65
i-882609,0.98,140.65
i-882610,0.483,1189.12
i-882611,1.25,2380.4
i-882612,0.495,139.58
i-882613,0.21,572.38
i-882614,0.483,535.59
i-882615,0.44,515.03
i-882616,0.483,1189.12
i-882617,1.25,2380.4
i-882618,1.25,2380.4
i-882619,0.483,1189.12
i-882620,0.28,97.37
i-882621,0.188,1243.22
i-882622,0.172,756.32
i-882623,0.483,86.55
i-882624,0.78,108.19
i-882625,1.25,2380.4
i-882626,1.37,2705.0
i-882627,0.38,32.45
i-882628,0.483,86.55
i-882629,0.38,32.45
i-882630,0.2,43.27
i-882631,0.172,756.32
i-882632,0.38,32.45
i-882633,0.88,97.37
i-882634,0.78,108.19
i-882635,0.166,864.52
i-882636,0.483,535.59
i-882637,0.28,485.82
i-882638,0.495,139.58
i-882639,0.44,515.03
i-882640,0.188,1243.22
i-882641,0.483,535.59
i-882642,0.98,140.65
i-882643,1.37,2705.0
i-882644,0.28,485.82
i-882645,1.28,162.28
i-882646,0.38,32.45
i-882647,1.28,162.28
i-882648,0.483,535.59
i-882649,0.188,1243.22
i-882650,1.37,2705.0
i-882651,0.483,86.55
i-882652,0.2,43.27
i-882653,0.483,86.55
i-882654,0.38,32.45
i-882655,0.28,485.82
i-882656,0.495,139.58
i-882657,0.28,485.82
i-882658,0.188,1243.22
i-882659,0.2,43.27
i-882660,0.28,97.37
i-882661,0.2,43.27
i-882662,0.21,572.38
i-882663,0.495,139.58
i-882664,0.44,515.03
i-882665,0.483,1189.12
i-882666,0.495,139.58
i-882667,1.25,2380.4
i-882668,0.98,140.65
i-882669,1.48,216.39
i-882670,0.483,86.55
i-882671,0.38,32.45
i-882672,0.78,108.19
i-882673,0.166,864.52
i-882674,0.44,515.03
i-882675,0.88,97.37
i-882676,0.172,756.32
i-882677,0.166,864.52
i-882678,0.483,535.59
i-882679,0.166,864.52
i-882680,0.2,43.27
i-882681,0.21,572.38
i-882682,1.28,162.28
i-882683,0.188,1243.22
i-882684,0.38,32.45
i-882685,0.166,864.52
i-882686,0.495,139.58
i-882687,0.172,756.32
i-882688,1.28,162.28
i-882689,0.483,1189.12
i-882690,1.25,2380.4
i-882691,1.37,2705.0
i-882692,0.21,572.38
i-882693,0.78,108.19
i-882694,0.483,86.55
i-882695,0.98,140.65
i-882696,1.48,216.39
i-882697,0.44,515.03
i-882698,0.28,97.37
i-882699,0.88,97.37
i-882700,1.48,216.39
i-882701,0.483,535.59
i-882702,0.166,864.52
i-882703,0.78,108.19
i-882704,0.28,485.82
i-882705,0.172,756.32
i-882706,1.48,216.39
i-882707,0.2,43.27
i-882708,1.37,2705.0
i-882709,0.98,140.65
i-882710,0.495,139.58
i-882711,0.483,86.55
i-882712,0.28,97.37
i-882713,0.483,1189.12
i-882714,0.28,97.37
i-882715,1.48,216.39
i-882716,1.48,216.39
i-882717,0.495,139.58
i-882718,1.28,162.28
i-882719,1.25,2380.4
i-882720,0.483,86.55
i-882721,0.98,140.65
i-882722,0.172,756.32
i-882723,1.37,2705.0
i-882724,0.38,32.45
i-882725,1.37,2705.0
i-882726,0.88,97.37
i-882727,0.483,535.59
i-882728,0.172,756.32
i-882729,0.483,86.55
i-882730,1.48,216.39
i-882731,0.2,43.27
i-882732,0.483,1189.12
i-882733,0.495,139.58
i-882734,0.88,97.37
i-882735,0.2,43.27
i-882736,1.48,216.39
i-882737,1.28,162.28
i-882738,1.37,2705.0
i-882739,0.38,32.45
i-882740,1.37,2705.0
i-882741,0.188,1243.22
i-882742,0.172,756.32
i-882743,0.2,43.27
i-882744,0.188,1243.22
i-882745,0.38,32.45
i-882746,0.44,515.03
i-882747,0.44,515.03
i-882748,0.78,108.19
i-882749,1.28,162.28
i-882750,0.483,535.59
i-882751,0.495,139.58
i-882752,0.44,515.03
i-882753,0.28,97.37
i-882754,0.44,515.03
i-882755,0.88,97.37
i-882756,0.2,43.27
i-882757,0.98,140.65
i-882758,0.172,756.32
i-882759,0.44,515.03
i-882760,0.483,1189.12
i-882761,0.44,515.03
i-882762,0.28,97.37
i-882763,0.78,108.19
i-882764,0.483,1189.12
i-882765,1.48,216.39
i-882766,0.44,515.03
i-882767,1.48,216.39
i-882768,0.88,97.37
i-882769,0.172,756.32
i-882770,0.172,756.32
i-882771,0.78,108.19
i-882772,0.98,140.65
i-882773,0.483,535.59
i-882774,1.48,216.39
i-882775,0.78,108.19
i-882776,0.78,108.19
i-882777,1.37,2705.0
i-882778,0.28,485.82
i-882779,0.44,515.03
i-882780,0.483,86.55
i-882781,1.48,216.39
i-882782,0.21,572.38
i-882783,0.172,756.32
i-882784,0.21,572.38
i-882785,1.48,216.39
i-882786,0.88,97.37
i-882787,0.21,572.38
i-882788,0.495,139.58
i-882789,0.78,108.19
i-882790,0.28,97.37
i-882791,0.483,1189.12
i-882792,0.166,864.52
i-882793,0.172,756.32
i-882794,0.28,97.37
i-882795,0.28,485.82
i-882796,0.188,1243.22
i-882797,1.25,2380.4
i-882798,0.483,535.59
i-882799,1.37,2705.0
i-882800,0.78,108.19
i-882801,0.188,1243.22
i-882802,0.2,43.27
i-882803,0.2,43.27
i-882804,0.172,756.32
i-882805,0.44,515.03
i-882806,0.21,572.38
i-882807,0.2,43.27
i-882808,0.495,139.58
i-882809,0.188,1243.22
i-882810,0.88,97.37
i-882811,0.28,485.82
i-882812,1.37,2705.0
i-882813,0.483,86.55
i-882814,1.28,162.28
i-882815,1.37,2705.0
i-882816,0.21,572.38
i-882817,0.28,97.37
i-882818,0.21,572.38
i-882819,0.188,1243.22
i-882820,0.44,515.03
i-882821,0.495,139.58
i-882822,0.78,108.19
i-882823,0.28,485.82
i-882824,0.88,97.37
i-882825,0.483,86.55
i-882826,0.98,140.65
i-882827,1.25,2380.4
i-882828,0.166,864.52
i-882829,0.2,43.27
i-882830,1.28,162.28
i-882831,0.78,108.19
i-882832,0.21,572.38
i-882833,0.172,756.32
i-882834,0.172,756.32
i-882835,0.166,864.52
i-882836,0.172,756.32
i-882837,0.44,515.03
i-882838,0.483,86.55
i-882839,0.166,864.52
i-882840,0.44,515.03
i-882841,1.37,2705.0
i-882842,0.172,756.32
i-882843,1.25,2380.4
i-882844,1.28,162.28
i-882845,0.495,139.58
i-882846,0.495,139.58
i-882847,0.483,1189.12
i-882848,0.172,756.32
i-882849,0.483,1189.12
i-882850,0.78,108.19
i-882851,1.25,2380.4
i-882852,1.48,216.39
i-882853,1.25,2380.4
i-882854,0.78,108.19
i-882855,1.25,2380.4
i-882856,0.483,86.55
i-882857,0.172,756.32
i-882858,0.98,140.65
i-882859,0.44,515.03
i-882860,0.188,1243.22
i-882861,0.38,32.45
i-882862,0.166,864.52
i-882863,1.25,2380.4
i-882864,1.25,2380.4
i-882865,0.495,139.58
i-882866,0.188,1243.22
i-882867,0.38,32.45
i-882868,0.78,108.19
i-882869,0.28,97.37
i-882870,0.483,535.59
i-882871,0.44,515.03
i-882872,0.495,139.58
i-882873,0.28,97.37
i-882874,1.25,2380.4
i-882875,0.188,1243.22
i-882876,0.483,535.59
i-882877,0.28,97.37
i-882878,0.98,140.65
i-882879,0.88,97.37
i-882880,1.48,216.39
i-882881,0.44,515.03
i-882882,0.172,756.32
i-882883,0.166,864.52
i-882884,0.21,572.38
i-882885,1.48,216.39
i-882886,0.98,140.65
i-882887,0.188,1243.22
i-882888,0.483,1189.12
i-882889,0.88,97.37
i-882890,1.37,2705.0
i-882891,0.38,32.45
i-882892,0.166,864.52
i-882893,0.38,32.45
i-882894,0.2,43.27
i-882895,0.483,86.55
i-882896,1.37,2705.0
i-882897,0.44,515.03
i-882898,0.28,97.37
i-882899,1.25,2380.4
i-882900,0.495,139.58
i-882901,1.28,162.28
i-882902,0.172,756.32
i-882903,0.495,139.58
i-882904,1.25,2380.4
i-882905,0.483,535.59
i-882906,1.48,216.39
i-882907,1.48,216.39
i-882908,0.166,864.52
i-882909,0.483,1189.12
i-882910,0.38,32.45
i-882911,0.172,756.32
i-882912,0.172,756.32
i-882913,0.78,108.19
i-882914,0.38,32.45
i-882915,0.88,97.37
i-882916,0.495,139.58
i-882917,0.88,97.37
i-882918,0.166,864.52
i-882919,0.483,86.55
i-882920,1.25,2380.4
i-882921,1.48,216.39
i-882922,0.28,97.37
i-882923,0.483,1189.12
i-882924,0.88,97.37
i-882925,0.483,535.59
i-882926,0.28,485.82
i-882927,0.2,43.27
i-882928,0.28,97.37
i-882929,0.188,1243.22
i-882930,0.188,1243.22
i-882931,0.483,86.55
i-882932,0.172,756.32
i-882933,0.88,97.37
i-882934,0.166,864.52
i-882935,1.25,2380.4
i-882936,1.28,162.28
i-882937,0.44,515.03
i-882938,0.28,485.82
i-882939,0.88,97.37
i-882940,0.483,86.55
i-882941,0.495,139.58
i-882942,1.48,216.39
i-882943,0.2,43.27
i-882944,0.38,32.45
i-882945,0.28,97.37
i-882946,0.98,140.65
i-882947,0.88,97.37
i-882948,0.483,1189.12
i-882949,0.98,140.65
i-882950,0.28,485.82
i-882951,0.21,572.38
i-882952,0.172,756.32
i-882953,0.78,108.19
i-882954,0.2,43.27
i-882955,1.48,216.39
i-882956,1.37,2705.0
i-882957,0.28,485.82
i-882958,1.37,2705.0
i-882959,0.88,97.37
i-882960,0.166,864.52
i-882961,1.37,2705.0
i-882962,0.78,108.19
i-882963,1.28,162.28
i-882964,1.25,2380.4
i-882965,0.88,97.37
i-882966,0.21,572.38
i-882967,0.38,32.45
i-882968,0.495,139.58
i-882969,0.88,97.37
i-882970,0.172,756.32
i-882971,0.172,756.32
i-882972,0.38,32.45
i-882973,0.166,864.52
i-882974,1.37,2705.0
i-882975,0.88,97.37
i-882976,0.28,485.82
i-882977,1.25,2380.4
i-882978,1.37,2705.0
i-882979,0.166,864.52
i-882980,0.495,139.58
i-882981,1.37,2705.0
i-882982,1.28,162.28
i-882983,0.2,43.27
i-882984,0.28,97.37
i-882985,1.48,216.39
i-882986,0.483,86.55
i-882987,0.172,756.32
i-882988,0.483,86.55
i-882989,1.28,162.28
i-882990,0.166,864.52
i-882991,0.88,97.37
i-882992,0.483,86.55
i-882993,1.28,162.28
i-882994,0.21,572.38
i-882995,0.483,1189.12
i-882996,0.172,756.32
i-882997,0.166,864.52
i-882998,0.21,572.38
i-882999,0.483,535.59
i-883000,0.2,43.27
i-883001,0.28,97.37
i-883002,0.188,1243.22
i-883003,0.166,864.52
i-883004,1.28,162.28
i-883005,0.44,515.03
i-883006,0.28,485.82
i-883007,0.28,485.82
i-883008,1.28,162.28
i-883009,0.44,515.03
i-883010,1.48,216.39
i-883011,0.188,1243.22
i-883012,1.48,216.39
i-883013,0.38,32.45
i-883014,0.28,485.82
i-883015,0.88,97.37
i-883016,0.44,515.03
i-883017,0.483,535.59
i-883018,0.166,864.52
i-883019,0.21,572.38
i-883020,0.28,97.37
i-883021,0.28,97.37
i-883022,0.172,756.32
i-883023,0.88,97.37
i-883024,1.48,216.39
i-883025,0.2,43.27
i-883026,0.483,1189.12
i-883027,0.166,864.52
i-883028,0.188,1243.22
i-883029,0.166,864.52
i-883030,0.38,32.45
i-883031,1.48,216.39
i-883032,1.25,2380.4
i-883033,0.2,43.27
i-883034,0.98,140.65
i-883035,0.172,756.32
i-883036,0.483,535.59
i-883037,1.48,216.39
i-883038,0.495,139.58
i-883039,0.483,1189.12
i-883040,1.48,216.39
i-883041,0.98,140.65
i-883042,0.495,139.58
i-883043,0.88,97.37
i-883044,0.28,97.37
i-883045,0.483,1189.12
i-883046,0.88,97.37
i-883047,1.25,2380.4
i-883048,0.44,515.03
i-883049,0.166,864.52
i-883050,0.495,139.58
i-883051,0.28,485.82
i-883052,0.495,139.58
i-883053,0.483,1189.12
i-883054,0.483,535.59
i-883055,0.98,140.65
i-883056,0.483,1189.12
i-883057,0.44,515.03
i-883058,0.21,572.38
i-883059,0.28,485.82
i-883060,0.98,140.65
i-883061,0.44,515.03
i-883062,0.38,32.45
i-883063,1.25,2380.4
i-883064,1.48,216.39
i-883065,0.166,864.52
i-883066,0.78,108.19
i-883067,0.88,97.37
i-883068,0.172,756.32
i-883069,0.44,515.03
i-883070,1.25,2380.4
i-883071,1.37,2705.0
i-883072,0.495,139.58
i-883073,0.44,515.03
i-883074,0.483,535.59
i-883075,0.98,140.65
i-883076,0.28,97.37
i-883077,0.172,756.32
i-883078,0.28,97.37
i-883079,1.48,216.39
i-883080,0.28,97.37
i-883081,0.172,756.32
i-883082,1.48,216.39
i-883083,0.483,86.55
i-883084,0.78,108.19
i-883085,0.483,86.55
i-883086,1.48,216.39
i-883087,0.2,43.27
i-883088,0.2,43.27
i-883089,1.28,162.28
i-883090,0.44,515.03
i-883091,0.28,485.82
i-883092,0.483,86.55
i-883093,1.25,2380.4
i-883094,0.495,139.58
i-883095,0.78,108.19
i-883096,0.78,108.19
i-883097,0.172,756.32
i-883098,0.483,1189.12
i-883099,0.483,86.55
i-883100,0.21,572.38
i-883101,0.166,864.52
i-883102,0.88,97.37
i-883103,1.48,216.39
i-883104,0.28,97.37
i-883105,0.78,108.19
i-883106,0.88,97.37
i-883107,1.37,2705.0
i-883108,0.495,139.58
i-883109,0.483,535.59
i-883110,0.483,535.59
i-883111,0.28,485.82
i-883112,0.2,43.27
i-883113,1.37,2705.0
i-883114,1.25,2380.4
i-883115,1.25,2380.4
i-883116,0.21,572.38
i-883117,0.483,86.55
i-883118,0.483,535.59
i-883119,0.88,97.37
i-883120,0.28,485.82
i-883121,1.48,216.39
i-883122,0.21,572.38
i-883123,0.88,97.37
i-883124,0.44,515.03
i-883125,0.38,32.45
i-883126,0.21,572.38
i-883127,0.21,572.38
i-883128,0.2,43.27
i-883129,0.28,97.37
i-883130,0.38,32.45
i-883131,0.28,97.37
i-883132,0.2,43.27
i-883133,0.28,485.82
i-883134,0.88,97.37
i-883135,1.25,2380.4
i-883136,1.48,216.39
i-883137,0.2,43.27
i-883138,0.483,86.55
i-883139,0.38,32.45
i-883140,0.78,108.19
i-883141,0.98,140.65
i-883142,0.495,139.58
i-883143,0.483,1189.12
i-883144,0.188,1243.22
i-883145,1.28,162.28
i-883146,0.166,864.52
i-883147,0.28,485.82
i-883148,0.98,140.65
i-883149,0.188,1243.22
i-883150,0.483,1189.12
i-883151,0.495,139.58
i-883152,0.38,32.45
i-883153,1.37,2705.0
i-883154,0.21,572.38
i-883155,1.25,2380.4
i-883156,0.483,86.55
i-883157,0.44,515.03
i-883158,0.483,535.59
i-883159,1.25,2380.4
i-883160,1.25,2380.4
i-883161,1.48,216.39
i-883162,0.483,86.55
i-883163,0.44,515.03
i-883164,0.495,139.58
i-883165,1.37,2705.0
i-883166,0.38,32.45
i-883167,0.188,1243.22
i-883168,0.38,32.45
i-883169,0.78,108.19
i-883170,0.44,515.03
i-883171,0.2,43.27
i-883172,0.172,756.32
i-883173,0.483,535.59
i-883174,0.28,485.82
i-883175,0.2,43.27
i-883176,0.28,485.82
i-883177,0.2,43.27
i-883178,0.188,1243.22
i-883179,0.172,756.32
i-883180,0.28,97.37
i-883181,1.28,162.28
i-883182,0.483,86.55
i-883183,0.28,97.37
i-883184,0.88,97.37
i-883185,1.37,2705.0
i-883186,0.38,32.45
i-883187,0.483,1189.12
i-883188,0.21,572.38
i-883189,0.483,1189.12
i-883190,0.2,43.27
i-883191,0.98,140.65
i-883192,0.188,1243.22
i-883193,0.98,140.65
i-883194,0.495,139.58
i-883195,1.48,216.39
i-883196,0.88,97.37
i-883197,0.88,97.37
i-883198,0.188,1243.22
i-883199,0.28,97.37
i-883200,0.78,108.19
i-883201,0.38,32.45
i-883202,0.172,756.32
i-883203,0.2,43.27
i-883204,0.44,515.03
i-883205,0.38,32.45
i-883206,0.28,97.37
i-883207,1.25,2380.4
i-883208,0.38,32.45
i-883209,0.495,139.58
i-883210,1.25,2380.4
i-883211,0.28,97.37
i-883212,0.495,139.58
i-883213,0.188,1243.22
i-883214,0.483,86.55
i-883215,0.188,1243.22
i-883216,0.495,139.58
i-883217,0.98,140.65
i-883218,1.48,216.39
i-883219,0.44,515.03
i-883220,1.25,2380.4
i-883221,0.44,515.03
i-883222,0.21,572.38
i-883223,0.172,756.32
i-883224,1.48,216.39
i-883225,0.188,1243.22
i-883226,0.44,515.03
i-883227,0.88,97.37
i-883228,0.44,515.03
i-883229,0.38,32.45
i-883230,1.37,2705.0
i-883231,1.25,2380.4
i-883232,1.37,2705.0
i-883233,0.188,1243.22
i-883234,1.28,162.28
i-883235,0.166,864.52
i-883236,0.483,535.59
i-883237,0.44,515.03
i-883238,0.78,108.19
i-883239,0.172,756.32
i-883240,0.38,32.45
i-883241,1.37,2705.0
i-883242,0.21,572.38
i-883243,0.2,43.27
i-883244,0.2,43.27
i-883245,0.21,572.38
i-883246,1.25,2380.4
i-883247,0.172,756.32
i-883248,0.2,43.27
i-883249,1.48,216.39
i-883250,0.21,572.38
i-883251,0.166,864.52
i-883252,0.483,1189.12
i-883253,0.44,515.03
i-883254,1.37,2705.0
i-883255,0.28,485.82
i-883256,0.188,1243.22
i-883257,0.98,140.65
i-883258,0.188,1243.22
i-883259,1.37,2705.0
i-883260,0.188,1243.22
i-883261,0.483,535.59
i-883262,0.166,864.52
i-883263,0.483,535.59
i-883264,1.37,2705.0
i-883265,0.188,1243.22
i-883266,0.78,108.19
i-883267,1.28,162.28
i-883268,0.28,485.82
i-883269,0.78,108.19
i-883270,0.2,43.27
i-883271,1.48,216.39
i-883272,0.172,756.32
i-883273,0.172,756.32
i-883274,0.188,1243.22
i-883275,0.188,1243.22
i-883276,0.188,1243.22
i-883277,0.44,515.03
i-883278,1.25,2380.4
i-883279,0.2,43.27
i-883280,0.88,97.37
i-883281,1.37,2705.0
i-883282,0.172,756.32
i-883283,0.44,515.03
i-883284,0.483,1189.12
i-883285,0.172,756.32
i-883286,0.172,756.32
i-883287,1.25,2380.4
i-883288,0.21,572.38
i-883289,1.28,162.28
i-883290,1.37,2705.0
i-883291,0.483,1189.12
i-883292,0.44,515.03
i-883293,1.25,2380.4
i-883294,0.2,43.27
i-883295,1.28,162.28
i-883296,1.25,2380.4
i-883297,0.28,97.37
i-883298,0.98,140.65
i-883299,0.2,43.27
i-883300,0.98,140.65
i-883301,0.483,535.59
i-883302,0.38,32.45
i-883303,1.25,2380.4
i-883304,1.25,2380.4
i-883305,1.48,216.39
i-883306,0.98,140.65
i-883307,0.88,97.37
i-883308,1.37,2705.0
i-883309,0.78,108.19
i-883310,0.78,108.19
i-883311,0.44,515.03
i-883312,0.483,1189.12
i-883313,0.44,515.03
i-883314,1.48,216.39
i-883315,0.44,515.03
i-883316,0.172,756.32
i-883317,0.21,572.38
i-883318,0.2,43.27
i-883319,0.188,1243.22
i-883320,0.483,1189.12
i-883321,0.44,515.03
i-883322,1.37,2705.0
i-883323,0.98,140.65
i-883324,0.483,1189.12
i-883325,1.28,162.28
i-883326,0.88,97.37
i-883327,0.78,108.19
i-883328,0.483,86.55
i-883329,0.44,515.03
i-883330,0.483,535.59
i-883331,0.483,1189.12
i-883332,0.172,756.32
i-883333,0.483,535.59
i-883334,0.2,43.27
i-883335,0.38,32.45
i-883336,0.98,140.65
i-883337,0.88,97.37
i-883338,1.37,2705.0
i-883339,0.28,485.82
i-883340,1.28,162.28
i-883341,0.188,1243.22
i-883342,1.25,2380.4
i-883343,0.21,572.38
i-883344,0.21,572.38
i-883345,0.21,572.38
i-883346,0.38,32.45
i-883347,0.28,485.82
i-883348,0.44,515.03
i-883349,0.483,535.59
i-883350,0.98,140.65
i-883351,0.188,1243.22
i-883352,0.88,97.37
i-883353,1.48,216.39
i-883354,0.2,43.27
i-883355,0.172,756.32
i-883356,0.188,1243.22
i-883357,0.188,1243.22
i-883358,0.28,97.37
i-883359,0.28,485.82
i-883360,0.483,1189.12
i-883361,0.98,140.65
i-883362,0.28,97.37
i-883363,1.28,162.28
i-883364,0.172,756.32
i-883365,0.483,535.59
i-883366,1.28,162.28
i-883367,0.166,864.52
i-883368,0.483,1189.12
i-883369,0.188,1243.22
i-883370,0.172,756.32
i-883371,0.78,108.19
i-883372,0.88,97.37
i-883373,0.2,43.27
i-883374,0.98,140.65
i-883375,1.25,2380.4
i-883376,0.495,139.58
i-883377,1.48,216.39
i-883378,0.483,535.59
i-883379,1.28,162.28
i-883380,0.44,515.03
i-883381,0.483,535.59
i-883382,0.44,515.03
i-883383,1.48,216.39
i-883384,0.483,535.59
i-883385,0.483,1189.12
i-883386,0.28,485.82
i-883387,0.188,1243.22
i-883388,0.44,515.03
i-883389,0.44,515.03
i-883390,0.44,515.03
i-883391,0.188,1243.22
i-883392,0.44,515.03
i-883393,0.166,864.52
i-883394,1.48,216.39
i-883395,0.78,108.19
i-883396,1.37,2705.0
i-883397,0.166,864.52
i-883398,0.2,43.27
i-883399,0.172,756.32
i-883400,0.28,485.82
i-883401,0.483,535.59
i-883402,1.25,2380.4
i-883403,0.166,864.52
i-883404,0.88,97.37
i-883405,0.495,139.58
i-883406,0.21,572.38
i-883407,0.188,1243.22
i-883408,0.28,485.82
i-883409,0.21,572.38
i-883410,1.37,2705.0
i-883411,0.78,108.19
i-883412,0.188,1243.22
i-883413,0.88,97.37
i-883414,1.28,162.28
i-883415,1.37,2705.0
i-883416,0.188,1243.22
i-883417,0.172,756.32
i-883418,0.2,43.27
i-883419,0.172,756.32
i-883420,0.483,86.55
i-883421,1.48,216.39
i-883422,0.188,1243.22
i-883423,1.37,2705.0
i-883424,0.28,97.37
i-883425,0.21,572.38
i-883426,0.78,108.19
i-883427,1.48,216.39
i-883428,0.495,139.58
i-883429,0.44,515.03
i-883430,0.166,864.52
i-883431,0.2,43.27
i-883432,0.172,756.32
i-883433,0.21,572.38
i-883434,0.188,1243.22
i-883435,0.44,515.03
i-883436,0.166,864.52
i-883437,0.188,1243.22
i-883438,0.495,139.58
i-883439,0.44,515.03
i-883440,1.48,216.39
i-883441,0.98,140.65
i-883442,0.88,97.37
i-883443,0.483,535.59
i-883444,1.37,2705.0
i-883445,0.172,756.32
i-883446,0.483,535.59
i-883447,1.25,2380.4
i-883448,0.21,572.38
i-883449,1.28,162.28
i-883450,1.37,2705.0
i-883451,0.28,97.37
i-883452,1.28,162.28
i-883453,1.25,2380.4
i-883454,1.25,2380.4
i-883455,0.166,864.52
i-883456,0.38,32.45
i-883457,1.48,216.39
i-883458,0.166,864.52
i-883459,0.483,1189.12
i-883460,0.2,43.27
i-883461,0.483,535.59
i-883462,0.38,32.45
i-883463,0.188,1243.22
i-883464,0.2,43.27
i-883465,0.483,1189.12
i-883466,0.28,97.37
i-883467,1.48,216.39
i-883468,0.38,32.45
i-883469,0.495,139.58
i-883470,0.188,1243.22
i-883471,0.188,1243.22
i-883472,0.172,756.32
i-883473,0.44,515.03
i-883474,0.98,140.65
i-883475,0.483,1189.12
i-883476,0.44,515.03
i-883477,1.37,2705.0
i-883478,0.483,1189.12
i-883479,0.21,572.38
i-883480,1.25,2380.4
i-883481,0.2,43.27
i-883482,0.28,97.37
i-883483,1.25,2380.4
i-883484,0.28,485.82
i-883485,0.78,108.19
i-883486,0.166,864.52
i-883487,0.166,864.52
i-883488,1.28,162.28
i-883489,0.483,535.59
i-883490,0.28,97.37
i-883491,0.98,140.65
i-883492,0.28,97.37
i-883493,0.98,140.65
i-883494,1.25,2380.4
i-883495,0.38,32.45
i-883496,0.483,535.59
i-883497,0.38,32.45
i-883498,0.483,535.59
i-883499,0.188,1243.22
i-883500,0.88,97.37
i-883501,0.78,108.19
i-883502,0.188,1243.22
i-883503,1.28,162.28
i-883504,0.21,572.38
i-883505,1.28,162.28
i-883506,0.98,140.65
i-883507,0.2,43.27
i-883508,0.172,756.32
i-883509,1.48,216.39
i-883510,0.28,485.82
i-883511,1.37,2705.0
i-883512,0.2,43.27
i-883513,0.21,572.38
i-883514,0.44,515.03
i-883515,0.44,515.03
i-883516,0.483,535.59
i-883517,0.78,108.19
i-883518,0.98,140.65
i-883519,0.166,864.52
i-883520,1.48,216.39
i-883521,1.25,2380.4
i-883522,0.38,32.45
i-883523,0.44,515.03
i-883524,0.38,32.45
i-883525,0.483,535.59
i-883526,1.37,2705.0
i-883527,1.28,162.28
i-883528,0.172,756.32
i-883529,0.21,572.38
i-883530,0.2,43.27
i-883531,0.88,97.37
i-883532,0.188,1243.22
i-883533,0.483,1189.12
i-883534,0.21,572.38
i-883535,0.483,1189.12
i-883536,0.98,140.65
i-883537,1.37,2705.0
i-883538,0.188,1243.22
i-883539,0.166,864.52
i-883540,0.38,32.45
i-883541,0.88,97.37
i-883542,0.98,140.65
i-883543,0.78,108.19
i-883544,0.28,485.82
i-883545,0.188,1243.22
i-883546,0.78,108.19
i-883547,0.166,864.52
i-883548,0.98,140.65
i-883549,1.48,216.39
i-883550,0.483,1189.12
i-883551,0.28,97.37
i-883552,0.483,1189.12
i-883553,1.28,162.28
i-883554,1.28,162.28
i-883555,0.2,43.27
i-883556,0.483,1189.12
i-883557,0.483,1189.12
i-883558,0.172,756.32
i-883559,0.172,756.32
i-883560,0.98,140.65
i-883561,1.28,162.28
i-883562,0.483,86.55
i-883563,0.98,140.65
i-883564,0.495,139.58
i-883565,1.25,2380.4
i-883566,0.98,140.65
i-883567,0.44,515.03
i-883568,0.78,108.19
i-883569,1.28,162.28
i-883570,0.44,515.03
i-883571,0.28,485.82
i-883572,0.2,43.27
i-883573,0.38,32.45
i-883574,0.28,97.37
i-883575,0.188,1243.22
i-883576,0.483,1189.12
i-883577,0.483,86.55
i-883578,1.37,2705.0
i-883579,0.78,108.19
i-883580,0.78,108.19
i-883581,0.98,140.65
i-883582,0.495,139.58
i-883583,0.21,572.38
i-883584,0.21,572.38
i-883585,0.28,485.82
i-883586,0.44,515.03
i-883587,0.483,86.55
i-883588,1.37,2705.0
i-883589,1.28,162.28
i-883590,0.495,139.58
i-883591,0.188,1243.22
i-883592,0.2,43.27
i-883593,0.98,140.65
i-883594,0.98,140.65
i-883595,0.172,756.32
i-883596,0.28,97.37
i-883597,0.483,1189.12
i-883598,0.28,485.82
i-883599,0.28,485.82
i-883600,0.44,515.03
i-883601,1.28,162.28
i-883602,1.25,2380.4
i-883603,0.88,97.37
i-883604,1.25,2380.4
i-883605,0.44,515.03
i-883606,0.21,572.38
i-883607,1.48,216.39
i-883608,0.2,43.27
i-883609,0.2,43.27
i-883610,0.188,1243.22
i-883611,1.37,2705.0
i-883612,1.48,216.39
i-883613,0.28,485.82
i-883614,0.21,572.38
i-883615,1.48,216.39
i-883616,0.495,139.58
i-883617,1.48,216.39
i-883618,1.48,216.39
i-883619,0.28,97.37
i-883620,0.21,572.38
i-883621,0.483,1189.12
i-883622,0.88,97.37
i-883623,0.21,572.38
i-883624,0.2,43.27
i-883625,0.44,515.03
i-883626,1.25,2380.4
i-883627,1.37,2705.0
i-883628,1.28,162.28
i-883629,0.28,485.82
i-883630,0.2,43.27
i-883631,0.28,97.37
i-883632,1.48,216.39
i-883633,1.28,162.28
i-883634,0.483,86.55
i-883635,0.88,97.37
i-883636,1.37,2705.0
i-883637,0.28,97.37
i-883638,0.21,572.38
i-883639,1.37,2705.0
i-883640,1.48,216.39
i-883641,0.188,1243.22
i-883642,1.28,162.28
i-883643,1.25,2380.4
i-883644,1.37,2705.0
i-883645,0.88,97.37
i-883646,1.48,216.39
i-883647,0.483,86.55
i-883648,0.483,1189.12
i-883649,0.188,1243.22
i-883650,0.28,97.37
i-883651,0.28,485.82
i-883652,0.21,572.38
i-883653,0.28,485.82
i-883654,1.28,162.28
i-883655,0.172,756.32
i-883656,0.483,86.55
i-883657,0.2,43.27
i-883658,0.172,756.32
i-883659,0.88,97.37
i-883660,0.98,140.65
i-883661,0.38,32.45
i-883662,1.25,2380.4
i-883663,0.28,97.37
i-883664,0.166,864.52
i-883665,0.44,515.03
i-883666,0.2,43.27
i-883667,0.483,1189.12
i-883668,1.28,162.28
i-883669,0.98,140.65
i-883670,0.483,535.59
i-883671,0.495,139.58
i-883672,0.78,108.19
i-883673,0.172,756.32
i-883674,0.88,97.37
i-883675,0.483,1189.12
i-883676,0.28,485.82
i-883677,0.38,32.45
i-883678,0.38,32.45
i-883679,0.78,108.19
i-883680,0.78,108.19
i-883681,0.44,515.03
i-883682,0.483,86.55
i-883683,1.25,2380.4
i-883684,0.172,756.32
i-883685,0.21,572.38
i-883686,0.28,485.82
i-883687,0.78,108.19
i-883688,0.188,1243.22
i-883689,0.38,32.45
i-883690,1.25,2380.4
i-883691,1.48,216.39
i-883692,0.28,97.37
i-883693,0.166,864.52
i-883694,0.44,515.03
i-883695,0.166,864.52
i-883696,0.88,97.37
i-883697,1.28,162.28
i-883698,0.21,572.38
i-883699,1.25,2380.4
i-883700,0.98,140.65
i-883701,0.38,32.45
i-883702,0.28,97.37
i-883703,0.2,43.27
i-883704,0.483,86.55
i-883705,0.21,572.38
i-883706,1.48,216.39
i-883707,0.2,43.27
i-883708,1.37,2705.0
i-883709,0.495,139.58
i-883710,0.495,139.58
i-883711,0.483,535.59
i-883712,1.28,162.28
i-883713,1.25,2380.4
i-883714,0.38,32.45
i-883715,1.28,162.28
i-883716,0.172,756.32
i-883717,0.483,86.55
i-883718,0.2,43.27
i-883719,0.172,756.32
i-883720,1.25,2380.4
i-883721,0.495,139.58
i-883722,1.48,216.39
i-883723,0.38,32.45
i-883724,0.495,139.58
i-883725,0.188,1243.22
i-883726,0.483,86.55
i-883727,0.21,572.38
i-883728,0.21,572.38
i-883729,0.44,515.03
i-883730,0.483,86.55
i-883731,1.25,2380.4
i-883732,1.28,162.28
i-883733,0.495,139.58
i-883734,0.188,1243.22
i-883735,0.172,756.32
i-883736,1.25,2380.4
i-883737,0.28,97.37
i-883738,0.78,108.19
i-883739,0.28,485.82
i-883740,1.28,162.28
i-883741,0.495,139.58
i-883742,1.28,162.28
i-883743,0.483,535.59
i-883744,1.28,162.28
i-883745,0.188,1243.22
i-883746,0.98,140.65
i-883747,0.28,97.37
i-883748,0.188,1243.22
i-883749,1.25,2380.4
i-883750,0.483,1189.12
i-883751,1.25,2380.4
i-883752,0.21,572.38
i-883753,0.28,97.37
i-883754,0.28,97.37
i-883755,0.44,515.03
i-883756,0.28,485.82
i-883757,0.166,864.52
i-883758,1.37,2705.0
i-883759,0.78,108.19
i-883760,0.28,485.82
i-883761,0.38,32.45
i-883762,1.48,216.39
i-883763,0.28,485.82
i-883764,1.25,2380.4
i-883765,1.37,2705.0
i-883766,1.48,216.39
i-883767,1.48,216.39
i-883768,0.2,43.27
i-883769,1.37,2705.0
i-883770,1.28,162.28
i-883771,0.44,515.03
i-883772,0.483,1189.12
i-883773,0.98,140.65
i-883774,1.48,216.39
i-883775,1.28,162.28
i-883776,1.28,162.28
i-883777,0.483,535.59
i-883778,1.37,2705.0
i-883779,1.28,162.28
i-883780,1.28,162.28
i-883781,1.48,216.39
i-883782,0.495,139.58
i-883783,0.483,535.59
i-883784,0.21,572.38
i-883785,0.38,32.45
i-883786,0.2,43.27
i-883787,0.483,535.59
i-883788,0.188,1243.22
i-883789,0.28,485.82
i-883790,0.188,1243.22
i-883791,0.88,97.37
i-883792,1.25,2380.4
i-883793,0.166,864.52
i-883794,0.38,32.45
i-883795,0.88,97.37
i-883796,0.495,139.58
i-883797,0.38,32.45
i-883798,1.37,2705.0
i-883799,0.172,756.32
i-883800,0.21,572.38
i-883801,0.38,32.45
i-883802,0.44,515.03
i-883803,0.188,1243.22
i-883804,0.88,97.37
i-883805,0.88,97.37
i-883806,0.21,572.38
i-883807,0.188,1243.22
i-883808,0.483,1189.12
i-883809,0.172,756.32
i-883810,0.495,139.58
i-883811,0.2,43.27
i-883812,0.483,86.55
i-883813,1.25,2380.4
i-883814,1.28,162.28
i-883815,1.48,216.39
i-883816,0.38,32.45
i-883817,0.21,572.38
i-883818,0.495,139.58
i-883819,1.48,216.39
i-883820,0.21,572.38
i-883821,0.21,572.38
i-883822,0.483,86.55
i-883823,0.21,572.38
i-883824,1.37,2705.0
i-883825,0.28,485.82
i-883826,0.28,485.82
i-883827,1.37,2705.0
i-883828,0.483,86.55
i-883829,1.28,162.28
i-883830,0.483,86.55
i-883831,0.483,1189.12
i-883832,0.483,535.59
i-883833,0.98,140.65
i-883834,0.98,140.65
i-883835,0.172,756.32
i-883836,0.88,97.37
i-883837,0.2,43.27
i-883838,0.28,485.82
i-883839,0.98,140.65
i-883840,0.2,43.27
i-883841,0.172,756.32
i-883842,0.495,139.58
i-883843,0.21,572.38
i-883844,0.98,140.65
i-883845,0.172,756.32
i-883846,1.25,2380.4
i-883847,0.88,97.37
i-883848,0.172,756.32
i-883849,0.495,139.58
i-883850,0.78,108.19
i-883851,0.172,756.32
i-883852,0.2,43.27
i-883853,1.28,162.28
i-883854,0.495,139.58
i-883855,1.28,164.63
i-883856,0.78,109.76
i-883857,0.166,877.06
i-883858,0.483,543.36
i-883859,1.37,2744.25
i-883860,0.44,522.5
i-883861,0.172,767.29
i-883862,0.172,767.29
i-883863,1.25,2414.94
i-883864,0.483,543.36
i-883865,0.28,492.87
i-883866,0.88,98.78
i-883867,1.48,219.53
i-883868,0.98,142.69
i-883869,0.28,492.87
i-883870,0.166,877.06
i-883871,0.28,492.87
i-883872,0.483,87.81
i-883873,0.21,580.69
i-883874,0.21,580.69
i-883875,0.483,87.81
i-883876,0.188,1261.26
i-883877,0.172,767.29
i-883878,0.495,141.61
i-883879,1.37,2744.25
i-883880,0.78,109.76
i-883881,0.166,877.06
i-883882,0.38,32.92
i-883883,0.483,1206.37
i-883884,0.495,141.61
i-883885,0.166,877.06
i-883886,1.28,164.63
i-883887,0.188,1261.26
i-883888,0.166,877.06
i-883889,0.21,580.69
i-883890,1.25,2414.94
i-883891,0.172,767.29
i-883892,0.44,522.5
i-883893,0.44,522.5
i-883894,0.38,32.92
i-883895,0.44,522.5
i-883896,0.2,43.9
i-883897,0.88,98.78
i-883898,0.98,142.69
i-883899,0.78,109.76
i-883900,0.44,522.5
i-883901,0.483,87.81
i-883902,0.2,43.9
i-883903,0.166,877.06
i-883904,0.44,522.5
i-883905,1.37,2744.25
i-883906,0.483,543.36
i-883907,0.28,98.78
i-883908,0.44,522.5
i-883909,0.38,32.92
i-883910,0.483,543.36
i-883911,0.28,98.78
i-883912,0.98,142.69
i-883913,0.38,32.92
i-883914,1.48,219.53
i-883915,0.483,1206.37
i-883916,0.38,32.92
i-883917,1.37,2744.25
i-883918,0.166,877.06
i-883919,0.28,98.78
i-883920,0.28,492.87
i-883921,0.28,492.87
i-883922,1.28,164.63
i-883923,0.38,32.92
i-883924,0.98,142.69
i-883925,0.483,1206.37
i-883926,0.28,98.78
i-883927,0.78,109.76
i-883928,0.78,109.76
i-883929,1.25,2414.94
i-883930,0.483,543.36
i-883931,0.88,98.78
i-883932,1.28,164.63
i-883933,0.188,1261.26
i-883934,0.483,87.81
i-883935,0.495,141.61
i-883936,0.21,580.69
i-883937,0.78,109.76
i-883938,0.28,98.78
i-883939,1.48,219.53
i-883940,0.483,543.36
i-883941,0.88,98.78
i-883942,0.21,580.69
i-883943,0.166,877.06
i-883944,0.2,43.9
i-883945,0.172,767.29
i-883946,0.88,98.78
i-883947,0.21,580.69
i-883948,0.88,98.78
i-883949,0.88,98.78
i-883950,0.166,877.06
i-883951,0.44,522.5
i-883952,1.48,219.53
i-883953,0.21,580.69
i-883954,0.98,142.69
i-883955,0.483,1206.37
i-883956,0.172,767.29
i-883957,0.28,98.78
i-883958,0.98,142.69
i-883959,0.78,109.76
i-883960,0.78,109.76
i-883961,0.44,522.5
i-883962,1.28,164.63
i-883963,0.172,767.29
i-883964,0.38,32.92
i-883965,0.483,1206.37
i-883966,1.28,164.63
i-883967,0.44,522.5
i-883968,0.483,1206.37
i-883969,0.28,98.78
i-883970,0.38,32.92
i-883971,0.172,767.29
i-883972,0.188,1261.26
i-883973,0.78,109.76
i-883974,0.28,492.87
i-883975,0.44,522.5
i-883976,0.2,43.9
i-883977,1.37,2744.25
i-883978,0.483,543.36
i-883979,0.28,492.87
i-883980,0.21,580.69
i-883981,0.44,522.5
i-883982,0.38,32.92
i-883983,0.38,32.92
i-883984,0.483,543.36
i-883985,0.172,767.29
i-883986,1.48,219.53
i-883987,1.48,219.53
i-883988,0.78,109.76
i-883989,0.44,522.5
i-883990,0.483,1206.37
i-883991,0.21,580.69
i-883992,0.495,141.61
i-883993,1.37,2744.25
i-883994,0.98,142.69
i-883995,0.483,1206.37
i-883996,1.28,164.63
i-883997,1.37,2744.25
i-883998,0.166,877.06
i-883999,0.483,1206.37
i-884000,0.38,32.92
i-884001,1.48,219.53
i-884002,0.172,767.29
i-884003,0.78,109.76
i-884004,0.188,1261.26
i-884005,0.88,98.78
i-884006,0.98,142.69
i-884007,1.28,164.63
i-884008,0.88,98.78
i-884009,0.483,543.36
i-884010,0.495,141.61
i-884011,0.483,87.81
i-884012,0.38,32.92
i-884013,0.98,142.69
i-884014,0.44,522.5
i-884015,0.172,767.29
i-884016,0.98,142.69
i-884017,0.98,142.69
i-884018,1.48,219.53
i-884019,0.38,32.92
i-884020,1.25,2414.94
i-884021,0.495,141.61
i-884022,0.483,543.36
i-884023,0.28,98.78
i-884024,1.37,2744.25
i-884025,0.98,142.69
i-884026,0.98,142.69
i-884027,0.21,580.69
i-884028,1.28,164.63
i-884029,0.21,580.69
i-884030,0.166,877.06
i-884031,0.98,142.69
i-884032,0.483,1206.37
i-884033,0.28,492.87
i-884034,0.38,32.92
i-884035,0.28,98.78
i-884036,0.28,492.87
i-884037,0.483,87.81
i-884038,1.25,2414.94
i-884039,1.48,219.53
i-884040,1.48,219.53
i-884041,0.188,1261.26
i-884042,0.98,142.69
i-884043,0.98,142.69
i-884044,0.495,141.61
i-884045,0.98,142.69
i-884046,0.98,142.69
i-884047,0.44,522.5
i-884048,1.48,219.53
i-884049,0.21,580.69
i-884050,0.38,32.92
i-884051,0.166,877.06
i-884052,0.483,87.81
i-884053,0.495,141.61
i-884054,0.495,141.61
i-884055,1.25,2414.94
i-884056,0.483,1206.37
i-884057,0.21,580.69
i-884058,0.78,109.76
i-884059,1.37,2744.25
i-884060,0.78,109.76
i-884061,1.37,2744.25
i-884062,1.25,2414.94
i-884063,0.28,492.87
i-884064,0.28,98.78
i-884065,0.28,98.78
i-884066,1.28,164.63
i-884067,0.38,32.92
i-884068,1.25,2414.94
i-884069,0.28,492.87
i-884070,0.172,767.29
i-884071,0.483,543.36
i-884072,0.98,142.69
i-884073,0.495,141.61
i-884074,1.25,2414.94
i-884075,0.188,1261.26
i-884076,0.483,87.81
i-884077,0.495,141.61
i-884078,0.78,109.76
i-884079,1.48,219.53
i-884080,0.28,98.78
i-884081,1.48,219.53
i-884082,0.188,1261.26
i-884083,0.2,43.9
i-884084,0.28,492.87
i-884085,0.495,141.61
i-884086,0.2,43.9
i-884087,0.483,543.36
i-884088,0.78,109.76
i-884089,0.38,32.92
i-884090,1.25,2414.94
i-884091,0.44,522.5
i-884092,0.38,32.92
i-884093,0.78,109.76
i-884094,1.25,2414.94
i-884095,1.25,2414.94
i-884096,0.38,32.92
i-884097,0.495,141.61
i-884098,0.78,109.76
i-884099,0.88,98.78
i-884100,0.28,492.87
i-884101,0.483,543.36
i-884102,1.25,2414.94
i-884103,0.483,1206.37
i-884104,1.28,164.63
i-884105,0.44,522.5
i-884106,0.483,1206.37
i-884107,0.21,580.69
i-884108,0.98,142.69
i-884109,0.28,98.78
i-884110,1.48,219.53
i-884111,0.28,492.87
i-884112,1.25,2414.94
i-884113,0.21,580.69
i-884114,0.495,141.61
i-884115,0.44,522.5
i-884116,0.98,142.69
i-884117,1.28,164.63
i-884118,1.37,2744.25
i-884119,0.483,543.36
i-884120,0.2,43.9
i-884121,1.25,2414.94
i-884122,0.483,87.81
i-884123,0.38,32.92
i-884124,0.483,87.81
i-884125,0.483,1206.37
i-884126,0.2,43.9
i-884127,0.21,580.69
i-884128,0.21,580.69
i-884129,0.483,87.81
i-884130,0.38,32.92
i-884131,0.98,142.69
i-884132,0.495,141.61
i-884133,0.166,877.06
i-884134,0.44,522.5
i-884135,0.28,98.78
i-884136,0.166,877.06
i-884137,0.483,543.36
i-884138,0.483,1206.37
i-884139,1.48,219.53
i-884140,1.28,164.63
i-884141,0.98,142.69
i-884142,0.38,32.92
i-884143,0.21,580.69
i-884144,1.37,2744.25
i-884145,0.28,98.78
i-884146,0.88,98.78
i-884147,0.483,543.36
i-884148,0.172,767.29
i-884149,0.44,522.5
i-884150,0.21,580.69
i-884151,0.28,98.78
i-884152,0.88,98.78
i-884153,1.25,2414.94
i-884154,0.495,141.61
i-884155,0.483,1206.37
i-884156,0.495,141.61
i-884157,1.48,219.53
i-884158,1.48,219.53
i-884159,1.37,2744.25
i-884160,0.495,141.61
i-884161,1.48,219.53
i-884162,0.44,522.5
i-884163,0.483,87.81
i-884164,0.483,1206.37
i-884165,0.38,32.92
i-884166,0.483,543.36
i-884167,1.48,219.53
i-884168,0.98,142.69
i-884169,0.495,141.61
i-884170,0.78,109.76
i-884171,0.78,109.76
i-884172,0.483,543.36
i-884173,0.28,98.78
i-884174,0.78,109.76
i-884175,0.166,877.06
i-884176,0.21,580.69
i-884177,0.495,141.61
i-884178,0.88,98.78
i-884179,0.166,877.06
i-884180,1.28,164.63
i-884181,0.483,87.81
i-884182,0.44,522.5
i-884183,0.38,32.92
i-884184,0.483,543.36
i-884185,0.2,43.9
i-884186,0.2,43.9
i-884187,1.48,219.53
i-884188,0.495,141.61
i-884189,0.188,1261.26
i-884190,1.48,219.53
i-884191,0.495,141.61
i-884192,0.21,580.69
i-884193,0.38,32.92
i-884194,0.28,98.78
i-884195,0.172,767.29
i-884196,0.21,580.69
i-884197,1.28,164.63
i-884198,0.38,32.92
i-884199,1.28,164.63
i-884200,0.2,43.9
i-884201,0.483,543.36
i-884202,1.37,2744.25
i-884203,0.21,580.69
i-884204,1.48,219.53
i-884205,0.88,98.78
i-884206,0.188,1261.26
i-884207,0.2,43.9
i-884208,0.2,43.9
i-884209,0.483,1206.37
i-884210,0.172,767.29
i-884211,0.495,141.61
i-884212,0.21,580.69
i-884213,0.44,522.5
i-884214,0.38,32.92
i-884215,0.166,877.06
i-884216,1.28,164.63
i-884217,0.483,543.36
i-884218,0.44,522.5
i-884219,0.2,43.9
i-884220,0.483,1206.37
i-884221,1.37,2744.25
i-884222,0.78,109.76
i-884223,0.28,98.78
i-884224,0.28,492.87
i-884225,1.25,2414.94
i-884226,1.37,2744.25
i-884227,0.172,767.29
i-884228,0.483,543.36
i-884229,0.44,522.5
i-884230,0.38,32.92
i-884231,0.44,522.5
i-884232,1.25,2414.94
i-884233,1.37,2744.25
i-884234,0.38,32.92
i-884235,0.98,142.69
i-884236,0.98,142.69
i-884237,0.166,877.06
i-884238,0.483,1206.37
i-884239,0.2,43.9
i-884240,0.78,109.76
i-884241,0.495,141.61
i-884242,0.483,1206.37
i-884243,0.188,1261.26
i-884244,0.88,98.78
i-884245,0.44,522.5
i-884246,0.188,1261.26
i-884247,0.21,580.69
i-884248,0.166,877.06
i-884249,0.483,1206.37
i-884250,0.483,87.81
i-884251,0.28,98.78
i-884252,0.98,142.69
i-884253,0.483,87.81
i-884254,0.166,877.06
i-884255,0.166,877.06
i-884256,0.88,98.78
i-884257,0.172,767.29
i-884258,1.48,219.53
i-884259,0.28,98.78
i-884260,0.166,877.06
i-884261,0.172,767.29
i-884262,0.98,142.69
i-884263,0.166,877.06
i-884264,0.2,43.9
i-884265,0.88,98.78
i-884266,0.44,522.5
i-884267,0.88,98.78
i-884268,1.28,164.63
i-884269,0.188,1261.26
i-884270,1.48,219.53
i-884271,0.483,1206.37
i-884272,0.166,877.06
i-884273,0.495,141.61
i-884274,1.48,219.53
i-884275,1.28,164.63
i-884276,1.25,2414.94
i-884277,0.166,877.06
i-884278,0.28,492.87
i-884279,1.25,2414.94
i-884280,1.37,2744.25
i-884281,1.25,2414.94
i-884282,0.172,767.29
i-884283,0.483,87.81
i-884284,0.88,98.78
i-884285,0.28,98.78
i-884286,0.172,767.29
i-884287,0.483,1206.37
i-884288,0.166,877.06
i-884289,1.28,164.63
i-884290,0.38,32.92
i-884291,0.483,87.81
i-884292,1.28,164.63
i-884293,0.188,1261.26
i-884294,0.44,522.5
i-884295,0.483,87.81
i-884296,1.37,2744.25
i-884297,0.78,109.76
i-884298,0.172,767.29
i-884299,0.38,32.92
i-884300,0.2,43.9
i-884301,0.172,767.29
i-884302,0.172,767.29
i-884303,0.98,142.69
i-884304,0.483,1206.37
i-884305,0.38,32.92
i-884306,0.483,1206.37
i-884307,0.98,142.69
i-884308,1.48,219.53
i-884309,0.88,98.78
i-884310,0.44,522.5
i-884311,0.98,142.69
i-884312,1.28,164.63
i-884313,0.21,580.69
i-884314,0.21,580.69
i-884315,0.38,32.92
i-884316,0.38,32.92
i-884317,0.21,580.69
i-884318,0.28,98.78
i-884319,0.44,522.5
i-884320,1.25,2414.94
i-884321,1.28,164.63
i-884322,0.21,580.69
i-884323,1.48,219.53
i-884324,0.172,767.29
i-884325,0.21,580.69
i-884326,0.2,43.9
i-884327,0.21,580.69
i-884328,0.98,142.69
i-884329,0.38,32.92
i-884330,0.495,141.61
i-884331,0.78,109.76
i-884332,0.483,543.36
i-884333,0.38,32.92
i-884334,0.495,141.61
i-884335,0.38,32.92
i-884336,0.483,543.36
i-884337,0.483,543.36
i-884338,0.78,109.76
i-884339,1.37,2744.25
i-884340,0.78,109.76
i-884341,0.88,98.78
i-884342,0.98,142.69
i-884343,0.44,522.5
i-884344,0.172,767.29
i-884345,0.2,43.9
i-884346,0.483,543.36
i-884347,0.38,32.92
i-884348,1.37,2744.25
i-884349,0.98,142.69
i-884350,1.37,2744.25
i-884351,1.28,164.63
i-884352,0.188,1261.26
i-884353,1.25,2414.94
i-884354,1.25,2414.94
i-884355,0.88,98.78
i-884356,0.483,87.81
i-884357,0.495,141.61
i-884358,0.44,522.5
i-884359,1.28,164.63
i-884360,1.25,2414.94
i-884361,0.78,109.76
i-884362,0.88,98.78
i-884363,0.495,141.61
i-884364,0.166,877.06
i-884365,0.172,767.29
i-884366,0.38,32.92
i-884367,0.28,492.87
i-884368,0.78,109.76
i-884369,1.48,219.53
i-884370,1.25,2414.94
i-884371,0.2,43.9
i-884372,0.78,109.76
i-884373,0.483,87.81
i-884374,0.483,87.81
i-884375,0.38,32.92
i-884376,0.88,98.78
i-884377,0.44,522.5
i-884378,1.48,219.53
i-884379,0.78,109.76
i-884380,0.21,580.69
i-884381,0.78,109.76
i-884382,0.188,1261.26
i-884383,1.28,164.63
i-884384,0.166,877.06
i-884385,0.28,492.87
i-884386,1.25,2414.94
i-884387,0.483,1206.37
i-884388,0.28,98.78
i-884389,0.28,492.87
i-884390,0.166,877.06
i-884391,0.28,492.87
i-884392,1.37,2744.25
i-884393,0.28,98.78
i-884394,0.98,142.69
i-884395,0.483,543.36
i-884396,1.37,2744.25
i-884397,0.44,522.5
i-884398,0.28,492.87
i-884399,0.172,767.29
i-884400,1.28,164.63
i-884401,0.88,98.78
i-884402,0.78,109.76
i-884403,1.48,219.53
i-884404,0.483,1206.37
i-884405,0.98,142.69
i-884406,0.21,580.69
i-884407,0.495,141.61
i-884408,0.166,877.06
i-884409,0.28,492.87
i-884410,0.44,522.5
i-884411,0.483,87.81
i-884412,0.483,87.81
i-884413,1.48,219.53
i-884414,0.188,1261.26
i-884415,1.25,2414.94
i-884416,0.483,543.36
i-884417,0.483,1206.37
i-884418,0.483,1206.37
i-884419,0.21,580.69
i-884420,0.495,141.61
i-884421,0.172,767.29
i-884422,0.28,98.78
i-884423,1.25,2414.94
i-884424,0.28,98.78
i-884425,0.98,142.69
i-884426,0.28,98.78
i-884427,0.28,492.87
i-884428,0.483,87.81
i-884429,1.28,164.63
i-884430,1.25,2414.94
i-884431,0.172,767.29
i-884432,0.88,98.78
i-884433,0.38,32.92
i-884434,0.483,543.36
i-884435,0.172,767.29
i-884436,0.2,43.9
i-884437,0.44,522.5
i-884438,0.483,543.36
i-884439,0.38,32.92
i-884440,0.88,98.78
i-884441,0.28,98.78
i-884442,0.98,142.69
i-884443,0.98,142.69
i-884444,0.98,142.69
i-884445,1.48,219.53
i-884446,1.25,2414.94
i-884447,0.28,98.78
i-884448,0.483,543.36
i-884449,0.21,580.69
i-884450,0.78,109.76
i-884451,0.38,32.92
i-884452,0.483,87.81
i-884453,0.495,141.61
i-884454,0.483,1206.37
i-884455,0.28,492.87
i-884456,1.48,219.53
i-884457,0.172,767.29
i-884458,0.2,43.9
i-884459,0.28,492.87
i-884460,0.88,98.78
i-884461,1.37,2744.25
i-884462,0.495,141.61
i-884463,1.25,2414.94
i-884464,0.172,767.29
i-884465,0.495,141.61
i-884466,0.495,141.61
i-884467,0.172,767.29
i-884468,0.78,109.76
i-884469,0.28,98.78
i-884470,0.166,877.06
i-884471,0.188,1261.26
i-884472,0.98,142.69
i-884473,0.88,98.78
i-884474,0.172,767.29
i-884475,0.483,1206.37
i-884476,0.2,43.9
i-884477,0.495,141.61
i-884478,0.44,522.5
i-884479,0.44,522.5
i-884480,0.188,1261.26
i-884481,0.483,543.36
i-884482,0.495,141.61
i-884483,0.188,1261.26
i-884484,1.28,164.63
i-884485,0.28,98.78
i-884486,0.188,1261.26
i-884487,0.2,43.9
i-884488,0.188,1261.26
i-884489,0.172,767.29
i-884490,0.28,492.87
i-884491,0.188,1261.26
i-884492,0.188,1261.26
i-884493,0.483,543.36
i-884494,1.25,2414.94
i-884495,1.28,164.63
i-884496,0.44,522.5
i-884497,0.38,32.92
i-884498,0.495,141.61
i-884499,0.88,98.78
i-884500,0.44,522.5
i-884501,0.78,109.76
i-884502,0.28,492.87
i-884503,0.188,1261.26
i-884504,0.21,580.69
i-884505,0.78,109.76
i-884506,0.483,1206.37
i-884507,0.2,43.9
i-884508,0.44,522.5
i-884509,0.495,141.61
i-884510,1.48,219.53
i-884511,0.98,142.69
i-884512,0.483,543.36
i-884513,0.483,87.81
i-884514,0.38,32.92
i-884515,0.483,87.81
i-884516,0.483,543.36
i-884517,0.44,522.5
i-884518,0.44,522.5
i-884519,0.88,98.78
i-884520,1.28,164.63
i-884521,1.25,2414.94
i-884522,0.483,1206.37
i-884523,0.38,32.92
i-884524,1.25,2414.94
i-884525,1.37,2744.25
i-884526,0.495,141.61
i-884527,0.21,580.69
i-884528,0.88,98.78
i-884529,0.172,767.29
i-884530,0.166,877.06
i-884531,0.483,1206.37
i-884532,0.88,98.78
i-884533,1.37,2744.25
i-884534,0.88,98.78
i-884535,0.483,1206.37
i-884536,0.166,877.06
i-884537,0.172,767.29
i-884538,0.21,580.69
i-884539,0.495,141.61
i-884540,1.25,2414.94
i-884541,1.37,2744.25
i-884542,0.495,141.61
i-884543,0.78,109.76
i-884544,0.38,32.92
i-884545,0.88,98.78
i-884546,1.37,2744.25
i-884547,0.28,98.78
i-884548,0.2,43.9
i-884549,1.28,164.63
i-884550,1.37,2744.25
i-884551,0.2,43.9
i-884552,0.98,142.69
i-884553,0.28,98.78
i-884554,0.78,109.76
i-884555,0.188,1261.26
i-884556,0.483,87.81
i-884557,0.78,109.76
i-884558,0.166,877.06
i-884559,0.38,32.92
i-884560,0.483,543.36
i-884561,0.88,98.78
i-884562,0.495,141.61
i-884563,0.78,109.76
i-884564,0.483,1206.37
i-884565,0.88,98.78
i-884566,0.78,109.76
i-884567,1.28,164.63
i-884568,0.166,877.06
i-884569,0.88,98.78
i-884570,1.48,219.53
i-884571,0.495,141.61
i-884572,1.37,2744.25
i-884573,0.172,767.29
i-884574,0.172,767.29
i-884575,1.37,2744.25
i-884576,0.78,109.76
i-884577,0.188,1261.26
i-884578,0.38,32.92
i-884579,0.483,543.36
i-884580,0.483,1206.37
i-884581,0.38,32.92
i-884582,0.172,767.29
i-884583,1.37,2744.25
i-884584,0.2,43.9
i-884585,0.483,1206.37
i-884586,0.78,109.76
i-884587,1.37,2744.25
i-884588,0.172,767.29
i-884589,0.172,767.29
i-884590,0.78,109.76
i-884591,1.25,2414.94
i-884592,0.166,877.06
i-884593,1.48,219.53
i-884594,1.25,2414.94
i-884595,1.28,164.63
i-884596,0.166,877.06
i-884597,1.28,164.63
i-884598,0.166,877.06
i-884599,1.25,2414.94
i-884600,0.483,1206.37
i-884601,0.38,32.92
i-884602,0.28,98.78
i-884603,1.28,164.63
i-884604,1.48,219.53
i-884605,0.172,767.29
i-884606,0.166,877.06
i-884607,0.188,1261.26
i-884608,1.25,2414.94
i-884609,0.44,522.5
i-884610,0.483,87.81
i-884611,0.44,522.5
i-884612,1.48,219.53
i-884613,0.2,43.9
i-884614,0.88,98.78
i-884615,0.483,87.81
i-884616,0.38,32.92
i-884617,0.21,580.69
i-884618,0.2,43.9
i-884619,0.44,522.5
i-884620,1.48,219.53
i-884621,1.25,2414.94
i-884622,1.28,164.63
i-884623,0.2,43.9
i-884624,0.38,32.92
i-884625,0.483,1206.37
i-884626,1.28,164.63
i-884627,0.483,1206.37
i-884628,0.28,492.87
i-884629,0.21,580.69
i-884630,0.44,522.5
i-884631,0.483,543.36
i-884632,0.188,1261.26
i-884633,0.28,98.78
i-884634,0.44,522.5
i-884635,0.78,109.76
i-884636,0.483,1206.37
i-884637,1.37,2744.25
i-884638,0.166,877.06
i-884639,0.21,580.69
i-884640,0.28,492.87
i-884641,1.25,2414.94
i-884642,0.483,1206.37
i-884643,0.172,767.29
i-884644,1.28,164.63
i-884645,1.37,2744.25
i-884646,0.44,522.5
i-884647,1.28,164.63
i-884648,1.28,164.63
i-884649,0.88,98.78
i-884650,0.28,492.87
i-884651,1.28,164.63
i-884652,0.21,580.69
i-884653,0.28,492.87
i-884654,0.28,492.87
i-884655,0.38,32.92
i-884656,0.28,98.78
i-884657,1.28,164.63
i-884658,0.38,32.92
i-884659,0.38,32.92
i-884660,1.28,164.63
i-884661,0.38,32.92
i-884662,0.28,492.87
i-884663,0.98,142.69
i-884664,0.28,492.87
i-884665,0.483,543.36
i-884666,1.48,219.53
i-884667,0.88,98.78
i-884668,0.483,87.81
i-884669,0.495,141.61
i-884670,0.88,98.78
i-884671,0.44,522.5
i-884672,0.188,1261.26
i-884673,1.48,219.53
i-884674,0.483,87.81
i-884675,0.188,1261.26
i-884676,0.495,141.61
i-884677,1.28,164.63
i-884678,0.483,543.36
i-884679,0.38,32.92
i-884680,1.48,219.53
i-884681,0.78,109.76
i-884682,1.28,164.63
i-884683,0.2,43.9
i-884684,0.166,877.06
i-884685,0.172,767.29
i-884686,0.483,1206.37
i-884687,0.483,87.81
i-884688,0.78,109.76
i-884689,1.48,219.53
i-884690,0.21,580.69
i-884691,0.483,543.36
i-884692,0.38,32.92
i-884693,0.44,522.5
i-884694,0.98,142.69
i-884695,0.483,1206.37
i-884696,1.28,164.63
i-884697,1.25,2414.94
i-884698,1.48,219.53
i-884699,0.188,1261.26
i-884700,1.25,2414.94
i-884701,0.44,522.5
i-884702,0.483,87.81
i-884703,0.78,109.76
i-884704,0.172,767.29
i-884705,0.38,32.92
i-884706,0.483,543.36
i-884707,0.2,43.9
i-884708,0.495,141.61
i-884709,0.188,1261.26
i-884710,0.88,98.78
i-884711,0.28,492.87
i-884712,0.166,877.06
i-884713,0.28,98.78
i-884714,0.172,767.29
i-884715,0.495,141.61
i-884716,1.28,164.63
i-884717,0.483,543.36
i-884718,0.88,98.78
i-884719,0.98,142.69
i-884720,0.28,492.87
i-884721,0.28,492.87
i-884722,0.44,522.5
i-884723,0.483,87.81
i-884724,0.21,580.69
i-884725,1.25,2414.94
i-884726,0.21,580.69
i-884727,0.483,543.36
i-884728,0.2,43.9
i-884729,0.483,1206.37
i-884730,0.44,522.5
i-884731,0.483,1206.37
i-884732,0.188,1261.26
i-884733,0.88,98.78
i-884734,0.38,32.92
i-884735,0.172,767.29
i-884736,0.28,492.87
i-884737,1.25,2414.94
i-884738,0.483,1206.37
i-884739,1.25,2414.94
i-884740,0.88,98.78
i-884741,0.88,98.78
i-884742,0.483,1206.37
i-884743,0.21,580.69
i-884744,0.98,142.69
i-884745,0.495,141.61
i-884746,1.28,164.63
i-884747,0.21,580.69
i-884748,0.78,109.76
i-884749,1.25,2414.94
i-884750,0.483,543.36
i-884751,0.166,877.06
i-884752,1.37,2744.25
i-884753,0.88,98.78
i-884754,0.2,43.9
i-884755,1.37,2744.25
i-884756,0.483,1206.37
i-884757,0.78,109.76
i-884758,0.2,43.9
i-884759,0.98,142.69
i-884760,1.25,2414.94
i-884761,1.48,219.53
i-884762,0.188,1261.26
i-884763,0.88,98.78
i-884764,0.483,543.36
i-884765,0.98,142.69
i-884766,0.2,43.9
i-884767,0.98,142.69
i-884768,1.25,2414.94
i-884769,0.188,1261.26
i-884770,1.48,219.53
i-884771,0.483,87.81
i-884772,0.28,492.87
i-884773,1.48,219.53
i-884774,0.166,877.06
i-884775,0.483,1206.37
i-884776,0.2,43.9
i-884777,0.78,109.76
i-884778,0.483,1206.37
i-884779,0.98,142.69
i-884780,1.48,219.53
i-884781,0.78,109.76
i-884782,0.98,142.69
i-884783,0.483,1206.37
i-884784,0.188,1261.26
i-884785,0.483,543.36
i-884786,0.2,43.9
i-884787,0.98,142.69
i-884788,0.172,767.29
i-884789,0.28,492.87
i-884790,1.48,219.53
i-884791,0.172,767.29
i-884792,0.495,141.61
i-884793,0.172,767.29
i-884794,1.25,2414.94
i-884795,0.172,767.29
i-884796,0.28,98.78
i-884797,1.48,219.53
i-884798,0.38,32.92
i-884799,0.483,87.81
i-884800,0.38,32.92
i-884801,0.78,109.76
i-884802,0.38,32.92
i-884803,0.172,767.29
i-884804,0.21,580.69
i-884805,0.98,142.69
i-884806,0.495,141.61
i-884807,1.25,2414.94
i-884808,1.37,2744.25
i-884809,0.28,492.87
i-884810,0.44,522.5
i-884811,0.166,877.06
i-884812,0.98,142.69
i-884813,0.2,43.9
i-884814,0.28,492.87
i-884815,0.483,543.36
i-884816,0.38,32.92
i-884817,1.25,2414.94
i-884818,0.28,492.87
i-884819,0.172,767.29
i-884820,1.37,2744.25
i-884821,0.98,142.69
i-884822,1.28,164.63
i-884823,0.98,142.69
i-884824,0.88,98.78
i-884825,0.28,492.87
i-884826,1.37,2744.25
i-884827,0.44,522.5
i-884828,0.44,522.5
i-884829,0.172,767.29
i-884830,0.483,87.81
i-884831,0.495,141.61
i-884832,0.28,492.87
i-884833,0.28,98.78
i-884834,0.188,1261.26
i-884835,0.495,141.61
i-884836,0.44,522.5
i-884837,1.37,2744.25
i-884838,0.495,141.61
i-884839,0.188,1261.26
i-884840,1.25,2414.94
i-884841,0.2,43.9
i-884842,1.25,2414.94
i-884843,0.44,522.5
i-884844,0.98,142.69
i-884845,0.44,522.5
i-884846,0.28,98.78
i-884847,0.78,109.76
i-884848,0.483,543.36
i-884849,0.495,141.61
i-884850,0.44,522.5
i-884851,1.48,219.53
i-884852,0.21,580.69
i-884853,0.483,1206.37
i-884854,0.98,142.69
i-884855,0.483,543.36
i-884856,0.98,142.69
i-884857,0.483,87.81
i-884858,0.483,543.36
i-884859,0.172,767.29
i-884860,0.44,522.5
i-884861,0.483,1206.37
i-884862,0.98,142.69
i-884863,0.172,767.29
i-884864,0.28,98.78
i-884865,0.483,87.81
i-884866,0.28,98.78
i-884867,0.78,109.76
i-884868,0.44,522.5
i-884869,0.21,580.69
i-884870,0.483,543.36
i-884871,0.172,767.29
i-884872,0.28,492.87
i-884873,0.28,492.87
i-884874,0.188,1261.26
i-884875,1.37,2744.25
i-884876,0.2,43.9
i-884877,0.38,32.92
i-884878,0.483,1206.37
i-884879,0.28,492.87
i-884880,0.28,98.78
i-884881,0.88,98.78
i-884882,0.88,98.78
i-884883,0.166,877.06
i-884884,0.21,580.69
i-884885,0.38,32.92
i-884886,0.28,492.87
i-884887,0.172,767.29
i-884888,0.78,109.76
i-884889,0.188,1261.26
i-884890,0.172,767.29
i-884891,0.38,32.92
i-884892,0.21,580.69
i-884893,0.483,1206.37
i-884894,0.495,141.61
i-884895,0.88,98.78
i-884896,0.495,141.61
i-884897,0.172,767.29
i-884898,0.483,87.81
i-884899,0.483,87.81
i-884900,1.48,219.53
i-884901,0.28,492.87
i-884902,0.38,32.92
i-884903,0.88,98.78
i-884904,1.37,2744.25
i-884905,0.495,141.61
i-884906,0.98,142.69
i-884907,1.48,219.53
i-884908,0.483,543.36
i-884909,0.78,109.76
i-884910,1.37,2744.25
i-884911,0.483,543.36
i-884912,0.166,877.06
i-884913,0.172,767.29
i-884914,1.48,219.53
i-884915,0.2,43.9
i-884916,0.483,1206.37
i-884917,0.21,580.69
i-884918,1.28,164.63
i-884919,1.48,219.53
i-884920,0.172,767.29
i-884921,0.21,580.69
i-884922,0.28,98.78
i-884923,0.28,98.78
i-884924,0.44,522.5
i-884925,1.37,2744.25
i-884926,0.98,142.69
i-884927,0.28,492.87
i-884928,0.483,543.36
i-884929,0.28,492.87
i-884930,0.98,142.69
i-884931,0.78,109.76
i-884932,0.172,767.29
i-884933,0.38,32.92
i-884934,0.483,87.81
i-884935,0.483,1206.37
i-884936,1.37,2744.25
i-884937,0.2,43.9
i-884938,0.38,32.92
i-884939,0.38,32.92
i-884940,0.172,767.29
i-884941,0.483,87.81
i-884942,0.78,109.76
i-884943,0.483,87.81
i-884944,0.495,141.61
i-884945,0.483,1206.37
i-884946,0.28,98.78
i-884947,0.2,43.9
i-884948,0.44,522.5
i-884949,0.483,1206.37
i-884950,0.483,1206.37
i-884951,0.21,580.69
i-884952,0.44,522.5
i-884953,0.483,543.36
i-884954,0.98,142.69
i-884955,0.2,43.9
i-884956,0.78,109.76
i-884957,0.98,142.69
i-884958,0.483,543.36
i-884959,0.483,1206.37
i-884960,0.188,1261.26
i-884961,1.28,164.63
i-884962,0.483,543.36
i-884963,0.483,1206.37
i-884964,0.44,522.5
i-884965,0.28,492.87
i-884966,0.38,32.92
i-884967,0.2,43.9
i-884968,1.25,2414.94
i-884969,0.21,580.69
i-884970,0.28,98.78
i-884971,0.38,32.92
i-884972,0.483,87.81
i-884973,1.28,164.63
i-884974,0.2,43.9
i-884975,0.2,43.9
i-884976,0.28,98.78
i-884977,0.38,32.92
i-884978,0.172,767.29
i-884979,0.98,142.69
i-884980,0.483,87.81
i-884981,0.78,109.76
i-884982,1.28,164.63
i-884983,0.88,98.78
i-884984,0.483,87.81
i-884985,0.38,32.92
i-884986,0.21,580.69
i-884987,0.88,98.78
i-884988,0.495,141.61
i-884989,1.28,164.63
i-884990,0.28,98.78
i-884991,1.48,219.53
i-884992,0.483,1206.37
i-884993,0.172,767.29
i-884994,0.483,87.81
i-884995,0.2,43.9
i-884996,0.166,877.06
i-884997,0.2,43.9
i-884998,0.166,877.06
i-884999,0.21,580.69
i-885000,1.37,2744.25
i-885001,1.37,2744.25
i-885002,0.2,43.9
i-885003,1.37,2744.25
i-885004,0.28,98.78
i-885005,0.483,87.81
i-885006,0.21,580.69
i-885007,1.25,2414.94
i-885008,0.28,98.78
i-885009,0.166,877.06
i-885010,1.25,2414.94
i-885011,0.483,1206.37
i-885012,0.21,580.69
i-885013,0.483,543.36
i-885014,0.28,98.78
i-885015,0.38,32.92
i-885016,0.166,877.06
i-885017,0.28,492.87
i-885018,0.172,767.29
i-885019,0.21,580.69
i-885020,1.37,2744.25
i-885021,0.28,492.87
i-885022,1.37,2744.25
i-885023,0.44,522.5
i-885024,0.88,98.78
i-885025,1.25,2414.94
i-885026,0.78,109.76
i-885027,0.78,109.76
i-885028,1.37,2744.25
i-885029,0.28,492.87
i-885030,0.166,877.06
i-885031,0.172,767.29
i-885032,0.166,877.06
i-885033,0.88,98.78
i-885034,0.2,43.9
i-885035,0.98,142.69
i-885036,1.37,2744.25
i-885037,0.2,43.9
i-885038,0.172,767.29
i-885039,0.483,1206.37
i-885040,0.98,142.69
i-885041,1.25,2414.94
i-885042,1.37,2744.25
i-885043,0.495,141.61
i-885044,0.172,767.29
i-885045,1.37,2744.25
i-885046,1.48,219.53
i-885047,0.28,98.78
i-885048,0.28,492.87
i-885049,1.25,2414.94
i-885050,1.25,2414.94
i-885051,1.28,164.63
i-885052,0.28,98.78
i-885053,0.483,543.36
i-885054,0.28,492.87
i-885055,1.37,2744.25
i-885056,0.78,109.76
i-885057,0.2,43.9
i-885058,0.483,87.81
i-885059,0.78,109.76
i-885060,0.44,522.5
i-885061,1.48,219.53
i-885062,0.495,141.61
i-885063,1.37,2744.25
i-885064,0.78,109.76
i-885065,0.2,43.9
i-885066,1.28,164.63
i-885067,0.28,98.78
i-885068,0.88,98.78
i-885069,0.483,543.36
i-885070,0.495,141.61
i-885071,0.28,492.87
i-885072,0.172,767.29
i-885073,0.78,109.76
i-885074,0.2,43.9
i-885075,0.172,767.29
i-885076,0.483,87.81
i-885077,0.495,141.61
i-885078,0.483,87.81
i-885079,0.38,32.92
i-885080,1.28,164.63
i-885081,0.38,32.92
i-885082,1.37,2744.25
i-885083,0.28,492.87
i-885084,0.88,98.78
i-885085,1.25,2414.94
i-885086,0.483,1206.37
i-885087,0.98,142.69
i-885088,0.21,580.69
i-885089,1.37,2744.25
i-885090,1.25,2414.94
i-885091,1.25,2414.94
i-885092,0.483,87.81
i-885093,0.483,543.36
i-885094,0.166,877.06
i-885095,1.28,164.63
i-885096,0.28,98.78
i-885097,0.483,543.36
i-885098,0.172,767.29
i-885099,0.2,43.9
i-885100,1.48,219.53
i-885101,0.495,141.61
i-885102,0.21,580.69
i-885103,0.483,87.81
i-885104,0.28,98.78
i-885105,1.37,2744.25
i-885106,0.172,767.29
i-885107,0.495,141.61
i-885108,0.88,98.78
i-885109,0.44,522.5
i-885110,0.28,98.78
i-885111,1.37,2744.25
i-885112,0.38,32.92
i-885113,0.88,98.78
i-885114,0.21,580.69
i-885115,0.44,522.5
i-885116,0.28,492.87
i-885117,1.48,219.53
i-885118,0.2,43.9
i-885119,0.38,32.92
i-885120,0.28,492.87
i-885121,0.483,87.81
i-885122,1.48,219.53
i-885123,1.48,219.53
i-885124,0.188,1261.26
i-885125,0.2,43.9
i-885126,1.48,219.53
i-885127,1.28,164.63
i-885128,0.28,98.78
i-885129,1.28,164.63
i-885130,0.483,543.36
i-885131,0.188,1261.26
i-885132,0.78,109.76
i-885133,1.48,219.53
i-885134,0.88,98.78
i-885135,0.38,32.92
i-885136,1.48,219.53
i-885137,0.44,522.5
i-885138,0.483,87.81
i-885139,0.483,1206.37
i-885140,0.28,98.78
i-885141,1.48,219.53
i-885142,0.28,98.78
i-885143,0.495,141.61
i-885144,0.172,767.29
i-885145,0.28,492.87
i-885146,0.28,98.78
i-885147,0.28,492.87
i-885148,1.28,164.63
i-885149,0.483,87.81
i-885150,0.88,98.78
i-885151,0.483,543.36
i-885152,1.48,219.53
i-885153,0.166,877.06
i-885154,0.483,543.36
i-885155,0.88,98.78
i-885156,1.48,219.53
i-885157,0.88,98.78
i-885158,0.483,87.81
i-885159,0.78,109.76
i-885160,1.28,164.63
i-885161,0.188,1261.26
i-885162,0.88,98.78
i-885163,0.98,142.69
i-885164,1.37,2744.25
i-885165,0.88,98.78
i-885166,1.28,164.63
i-885167,1.37,2744.25
i-885168,0.172,767.29
i-885169,0.188,1261.26
i-885170,0.78,109.76
i-885171,0.166,877.06
i-885172,0.172,767.29
i-885173,0.483,543.36
i-885174,0.88,98.78
i-885175,0.166,877.06
i-885176,0.21,580.69
i-885177,0.28,98.78
i-885178,0.166,877.06
i-885179,1.48,219.53
i-885180,0.98,142.69
i-885181,0.483,87.81
i-885182,0.495,141.61
i-885183,0.483,543.36
i-885184,0.88,98.78
i-885185,0.495,141.61
i-885186,0.483,1206.37
i-885187,0.28,98.78
i-885188,1.48,219.53
i-885189,0.38,32.92
i-885190,0.483,543.36
i-885191,0.38,32.92
i-885192,0.483,1206.37
i-885193,0.166,877.06
i-885194,0.483,543.36
i-885195,0.28,492.87
i-885196,0.483,87.81
i-885197,0.98,142.69
i-885198,0.2,43.9
i-885199,0.28,98.78
i-885200,0.483,87.81
i-885201,0.483,87.81
i-885202,0.172,767.29
i-885203,0.172,767.29
i-885204,0.188,1261.26
i-885205,0.2,43.9
i-885206,0.483,87.81
i-885207,1.25,2414.94
i-885208,0.88,98.78
i-885209,0.2,43.9
i-885210,1.28,164.63
i-885211,1.28,164.63
i-885212,0.28,98.78
i-885213,0.78,109.76
i-885214,0.98,142.69
i-885215,0.188,1261.26
i-885216,0.88,98.78
i-885217,0.38,32.92
i-885218,0.38,32.92
i-885219,0.2,43.9
i-885220,0.21,580.69
i-885221,0.483,1206.37
i-885222,1.25,2414.94
i-885223,0.172,767.29
i-885224,1.25,2414.94
i-885225,0.172,767.29
i-885226,1.37,2744.25
i-885227,0.21,580.69
i-885228,0.28,492.87
i-885229,0.2,43.9
i-885230,0.172,767.29
i-885231,0.172,767.29
i-885232,0.28,492.87
i-885233,0.88,98.78
i-885234,1.28,164.63
i-885235,1.28,164.63
i-885236,0.188,1261.26
i-885237,0.188,1261.26
i-885238,0.44,522.5
i-885239,0.483,87.81
i-885240,0.166,877.06
i-885241,0.44,522.5
i-885242,0.483,1206.37
i-885243,0.188,1261.26
i-885244,1.37,2744.25
i-885245,1.28,164.63
i-885246,1.48,219.53
i-885247,1.25,2414.94
i-885248,0.483,1206.37
i-885249,0.495,141.61
i-885250,0.88,98.78
i-885251,0.166,877.06
i-885252,0.28,98.78
i-885253,0.44,522.5
i-885254,0.2,43.9
i-885255,0.483,87.81
i-885256,0.28,492.87
i-885257,0.21,580.69
i-885258,0.44,522.5
i-885259,0.188,1261.26
i-885260,1.28,164.63
i-885261,1.48,224.79
i-885262,0.483,89.91
i-885263,0.172,785.67
i-885264,0.38,33.71
i-885265,0.483,556.38
i-885266,0.98,146.11
i-885267,0.44,535.02
i-885268,1.48,224.79
i-885269,0.38,33.71
i-885270,0.28,504.68
i-885271,0.21,594.6
i-885272,0.495,145.0
i-885273,0.483,1235.27
i-885274,0.44,535.02
i-885275,0.495,145.0
i-885276,0.38,33.71
i-885277,0.44,535.02
i-885278,0.2,44.95
i-885279,0.28,101.15
i-885280,0.21,594.6
i-885281,0.28,504.68
i-885282,0.28,101.15
i-885283,0.483,556.38
i-885284,0.78,112.39
i-885285,0.483,1235.27
i-885286,0.483,89.91
i-885287,0.188,1291.48
i-885288,0.44,535.02
i-885289,0.188,1291.48
i-885290,0.44,535.02
i-885291,1.28,168.57
i-885292,1.48,224.79
i-885293,0.98,146.11
i-885294,1.28,168.57
i-885295,0.483,1235.27
i-885296,0.38,33.71
i-885297,0.172,785.67
i-885298,1.37,2810.0
i-885299,0.38,33.71
i-885300,0.88,101.15
i-885301,0.78,112.39
i-885302,0.78,112.39
i-885303,0.88,101.15
i-885304,0.98,146.11
i-885305,0.188,1291.48
i-885306,0.166,898.07
i-885307,0.483,1235.27
i-885308,0.78,112.39
i-885309,1.28,168.57
i-885310,1.25,2472.8
i-885311,0.21,594.6
i-885312,1.28,168.57
i-885313,0.2,44.95
i-885314,0.483,89.91
i-885315,1.25,2472.8
i-885316,0.483,1235.27
i-885317,0.166,898.07
i-885318,0.21,594.6
i-885319,0.28,101.15
i-885320,0.98,146.11
i-885321,1.48,224.79
i-885322,0.495,145.0
i-885323,0.166,898.07
i-885324,0.44,535.02
i-885325,1.28,168.57
i-885326,0.38,33.71
i-885327,0.172,785.67
i-885328,0.78,112.39
i-885329,0.28,101.15
i-885330,0.483,556.38
i-885331,0.28,504.68
i-885332,0.44,535.02
i-885333,0.483,556.38
i-885334,0.483,1235.27
i-885335,0.44,535.02
i-885336,0.78,112.39
i-885337,1.48,224.79
i-885338,0.188,1291.48
i-885339,0.495,145.0
i-885340,0.483,556.38
i-885341,1.37,2810.0
i-885342,0.78,112.39
i-885343,0.483,556.38
i-885344,0.188,1291.48
i-885345,0.78,112.39
i-885346,0.483,556.38
i-885347,0.38,33.71
i-885348,0.28,101.15
i-885349,0.44,535.02
i-885350,0.38,33.71
i-885351,0.2,44.95
i-885352,0.28,504.68
i-885353,0.172,785.67
i-885354,0.28,101.15
i-885355,0.188,1291.48
i-885356,0.28,101.15
i-885357,0.2,44.95
i-885358,0.38,33.71
i-885359,0.172,785.67
i-885360,0.28,504.68
i-885361,0.483,556.38
i-885362,0.28,504.68
i-885363,0.28,101.15
i-885364,0.44,535.02
i-885365,0.172,785.67
i-885366,0.44,535.02
i-885367,0.483,89.91
i-885368,0.483,1235.27
i-885369,0.88,101.15
i-885370,0.38,33.71
i-885371,0.88,101.15
i-885372,0.172,785.67
i-885373,0.98,146.11
i-885374,0.483,1235.27
i-885375,0.188,1291.48
i-885376,0.483,89.91
i-885377,0.21,594.6
i-885378,1.25,2472.8
i-885379,0.21,594.6
i-885380,0.188,1291.48
i-885381,0.21,594.6
i-885382,1.28,168.57
i-885383,1.25,2472.8
i-885384,0.28,504.68
i-885385,0.483,556.38
i-885386,0.172,785.67
i-885387,0.172,785.67
i-885388,0.495,145.0
i-885389,1.37,2810.0
i-885390,0.166,898.07
i-885391,1.48,224.79
i-885392,0.188,1291.48
i-885393,0.78,112.39
i-885394,0.483,556.38
i-885395,0.188,1291.48
i-885396,0.28,101.15
i-885397,0.38,33.71
i-885398,0.38,33.71
i-885399,0.2,44.95
i-885400,1.25,2472.8
i-885401,0.98,146.11
i-885402,1.48,224.79
i-885403,1.25,2472.8
i-885404,0.172,785.67
i-885405,0.483,1235.27
i-885406,0.78,112.39
i-885407,0.483,89.91
i-885408,0.44,535.02
i-885409,0.166,898.07
i-885410,0.88,101.15
i-885411,1.28,168.57
i-885412,0.21,594.6
i-885413,0.172,785.67
i-885414,1.48,224.79
i-885415,0.88,101.15
i-885416,0.172,785.67
i-885417,0.188,1291.48
i-885418,0.44,535.02
i-885419,1.25,2472.8
i-885420,0.2,44.95
i-885421,0.38,33.71
i-885422,1.37,2810.0
i-885423,0.483,1235.27
i-885424,0.98,146.11
i-885425,0.78,112.39
i-885426,1.37,2810.0
i-885427,0.166,898.07
i-885428,0.188,1291.48
i-885429,1.48,224.79
i-885430,0.483,556.38
i-885431,0.188,1291.48
i-885432,0.188,1291.48
i-885433,0.188,1291.48
i-885434,0.88,101.15
i-885435,0.28,504.68
i-885436,0.28,504.68
i-885437,0.78,112.39
i-885438,0.21,594.6
i-885439,1.25,2472.8
i-885440,0.483,556.38
i-885441,0.88,101.15
i-885442,0.38,33.71
i-885443,1.48,224.79
i-885444,0.98,146.11
i-885445,0.78,112.39
i-885446,1.28,168.57
i-885447,0.483,89.91
i-885448,0.28,101.15
i-885449,1.25,2472.8
i-885450,0.28,101.15
i-885451,0.88,101.15
i-885452,0.166,898.07
i-885453,0.28,101.15
i-885454,0.21,594.6
i-885455,0.28,504.68
i-885456,0.98,146.11
i-885457,0.28,101.15
i-885458,1.48,224.79
i-885459,1.37,2810.0
i-885460,0.28,101.15
i-885461,0.172,785.67
i-885462,0.2,44.95
i-885463,1.48,224.79
i-885464,0.38,33.71
i-885465,0.98,146.11
i-885466,1.25,2472.8
i-885467,0.483,556.38
i-885468,0.38,33.71
i-885469,0.88,101.15
i-885470,0.188,1291.48
i-885471,0.172,785.67
i-885472,0.28,504.68
i-885473,0.495,145.0
i-885474,0.44,535.02
i-885475,0.172,785.67
i-885476,0.495,145.0
i-885477,0.21,594.6
i-885478,0.483,556.38
i-885479,1.28,168.57
i-885480,0.21,594.6
i-885481,0.172,785.67
i-885482,0.495,145.0
i-885483,0.38,33.71
i-885484,0.21,594.6
i-885485,0.28,101.15
i-885486,1.28,168.57
i-885487,0.78,112.39
i-885488,0.44,535.02
i-885489,0.2,44.95
i-885490,0.38,33.71
i-885491,0.483,89.91
i-885492,0.166,898.07
i-885493,0.188,1291.48
i-885494,0.495,145.0
i-885495,0.78,112.39
i-885496,0.483,1235.27
i-885497,1.48,224.79
i-885498,0.483,89.91
i-885499,0.44,535.02
i-885500,0.2,44.95
i-885501,0.2,44.95
i-885502,0.78,112.39
i-885503,0.88,101.15
i-885504,0.2,44.95
i-885505,0.21,594.6
i-885506,1.37,2810.0
i-885507,0.2,44.95
i-885508,0.483,556.38
i-885509,0.38,33.71
i-885510,1.25,2472.8
i-885511,0.21,594.6
i-885512,0.38,33.71
i-885513,1.48,224.79
i-885514,1.28,168.57
i-885515,0.78,112.39
i-885516,0.21,594.6
i-885517,1.25,2472.8
i-885518,0.172,785.67
i-885519,0.495,145.0
i-885520,0.38,33.71
i-885521,1.28,168.57
i-885522,0.483,556.38
i-885523,0.21,594.6
i-885524,0.166,898.07
i-885525,0.483,89.91
i-885526,0.28,101.15
i-885527,0.44,535.02
i-885528,0.483,1235.27
i-885529,1.28,168.57
i-885530,0.166,898.07
i-885531,1.28,168.57
i-885532,1.48,224.79
i-885533,0.28,504.68
i-885534,0.188,1291.48
i-885535,0.38,33.71
i-885536,1.28,168.57
i-885537,0.98,146.11
i-885538,0.172,785.67
i-885539,0.188,1291.48
i-885540,0.495,145.0
i-885541,0.28,504.68
i-885542,1.37,2810.0
i-885543,0.21,594.6
i-885544,1.37,2810.0
i-885545,0.28,504.68
i-885546,0.172,785.67
i-885547,0.188,1291.48
i-885548,0.88,101.15
i-885549,0.483,1235.27
i-885550,0.483,556.38
i-885551,1.37,2810.0
i-885552,1.28,168.57
i-885553,0.483,89.91
i-885554,0.166,898.07
i-885555,1.37,2810.0
i-885556,0.44,535.02
i-885557,0.483,1235.27
i-885558,0.38,33.71
i-885559,0.495,145.0
i-885560,0.483,1235.27
i-885561,0.28,101.15
i-885562,1.28,168.57
i-885563,0.483,556.38
i-885564,0.21,594.6
i-885565,0.483,89.91
i-885566,0.172,785.67
i-885567,0.88,101.15
i-885568,1.25,2472.8
i-885569,1.25,2472.8
i-885570,0.495,145.0
i-885571,0.483,89.91
i-885572,0.28,504.68
i-885573,0.21,594.6
i-885574,0.78,112.39
i-885575,1.48,224.79
i-885576,0.88,101.15
i-885577,0.44,535.02
i-885578,0.2,44.95
i-885579,1.28,168.57
i-885580,0.172,785.67
i-885581,0.172,785.67
i-885582,0.172,785.67
i-885583,0.28,101.15
i-885584,0.483,89.91
i-885585,0.172,785.67
i-885586,0.21,594.6
i-885587,0.166,898.07
i-885588,0.88,101.15
i-885589,1.37,2810.0
i-885590,0.483,1235.27
i-885591,1.28,168.57
i-885592,0.188,1291.48
i-885593,0.483,556.38
i-885594,0.188,1291.48
i-885595,0.483,89.91
i-885596,0.483,1235.27
i-885597,0.28,101.15
i-885598,0.483,89.91
i-885599,0.78,112.39
i-885600,1.28,168.57
i-885601,0.88,101.15
i-885602,0.38,33.71
i-885603,0.483,1235.27
i-885604,0.21,594.6
i-885605,0.88,101.15
i-885606,0.483,1235.27
i-885607,0.88,101.15
i-885608,0.172,785.67
i-885609,0.172,785.67
i-885610,1.28,168.57
i-885611,1.28,168.57
i-885612,0.483,89.91
i-885613,0.188,1291.48
i-885614,1.25,2472.8
i-885615,0.483,1235.27
i-885616,0.166,898.07
i-885617,0.28,101.15
i-885618,0.172,785.67
i-885619,1.28,168.57
i-885620,0.166,898.07
i-885621,0.188,1291.48
i-885622,0.98,146.11
i-885623,0.483,1235.27
i-885624,0.166,898.07
i-885625,0.188,1291.48
i-885626,0.98,146.11
i-885627,1.37,2810.0
i-885628,0.483,89.91
i-885629,0.44,535.02
i-885630,0.483,556.38
i-885631,0.44,535.02
i-885632,0.28,504.68
i-885633,0.166,898.07
i-885634,0.172,785.67
i-885635,0.98,146.11
i-885636,0.172,785.67
i-885637,0.172,785.67
i-885638,0.44,535.02
i-885639,0.483,556.38
i-885640,0.172,785.67
i-885641,1.48,224.79
i-885642,1.37,2810.0
i-885643,0.188,1291.48
i-885644,0.495,145.0
i-885645,0.44,535.02
i-885646,1.48,224.79
i-885647,0.172,785.67
i-885648,0.28,504.68
i-885649,0.78,112.39
i-885650,0.2,44.95
i-885651,0.495,145.0
i-885652,0.44,535.02
i-885653,0.483,1235.27
i-885654,0.28,504.68
i-885655,1.37,2810.0
i-885656,0.483,1235.27
i-885657,0.78,112.39
i-885658,0.483,89.91
i-885659,1.37,2810.0
i-885660,0.21,594.6
i-885661,0.483,1235.27
i-885662,0.78,112.39
i-885663,0.188,1291.48
i-885664,0.21,594.6
i-885665,0.28,101.15
i-885666,0.188,1291.48
i-885667,0.38,33.71
i-885668,1.48,224.79
i-885669,0.172,785.67
i-885670,1.25,2472.8
i-885671,1.37,2810.0
i-885672,0.98,146.11
i-885673,1.28,168.57
i-885674,0.88,101.15
i-885675,0.2,44.95
i-885676,0.78,112.39
i-885677,1.48,224.79
i-885678,0.483,89.91
i-885679,0.166,898.07
i-885680,0.88,101.15
i-885681,0.483,1235.27
i-885682,1.48,224.79
i-885683,0.98,146.11
i-885684,1.28,168.57
i-885685,0.98,146.11
i-885686,0.495,145.0
i-885687,0.44,535.02
i-885688,1.25,2472.8
i-885689,0.44,535.02
i-885690,1.25,2472.8
i-885691,1.25,2472.8
i-885692,0.28,101.15
i-885693,0.495,145.0
i-885694,0.44,535.02
i-885695,0.98,146.11
i-885696,0.28,101.15
i-885697,0.98,146.11
i-885698,0.98,146.11
i-885699,0.21,594.6
i-885700,0.483,1235.27
